EMA,APZ_Upper,APZ_Lower,APZ_Upper%,APZ_Lower%,positive_streak_cumulative,negative_streak_cumulative,ATR%,14ma%,200ma%,14ma-200ma,14ma%_change,14ma%_count,200ma%_count,14ma_crossover,200ma_crossover,200DAY_ATR%,200DAY_ATR-%,percent_from_high,new_high,days_since_high,percent_range,VWAP_std14,VWAP_std200,VWAP%,VWAP%_from_high,Weighted_Close_Change_Velocity,percent_change_Close,pct_change_std,percent_change_Close_lag_1,percent_change_Close_lag_3,percent_change_Close_lag_5,percent_change_Close_lag_10,percent_change_Close_7,percent_change_Close_30,percent_change_Close>std,percent_change_Close<std,pct_change_std_rolling,days_since_abnormal_pct_change,VWAP_Divergence,RSI,RSI_overbought,RSI_oversold,RSI_very_overbought,RSI_very_oversold,EFI,direction_flipper_count5,direction_flipper_count_10,direction_flipper_count_14,KC_UPPER%,KC_LOWER%,positive_streak,negative_streak,positive_streak_max,negative_streak_max,is_gap_up,is_gap_down,move_from_gap%,VPT
-0.4534,-0.4504,-0.4534,0.9053,-1.012,-0.436,-0.1236,-0.257,-0.873,0.05734,-0.02245,0.3154,-1.143,-1.212,-1.0,0.0,-0.0633,-0.04623,0.3733,0.0,-0.5254,-0.5894,-0.2708,-0.3215,-0.902,0.5713,-0.1389,-0.5566,-0.4248,-0.5493,-0.1814,1.841,0.1754,-0.4531,-0.45,0.0,0.0,-0.452,0.0,-0.4167,-1.167,0.0,1.0,0.0,0.0,-0.00332,-2.0,-1.5,-2.0,0.9004,-0.974,0.0,5.0,0.5,0.0,0.0,0.0,0.0,-0.03296
-0.4536,-0.4504,-0.4536,0.74,-0.846,-0.436,-0.1236,-0.3662,-0.6963,0.08044,-0.026,-0.1122,-1.143,-1.202,-1.0,0.0,-0.09265,-0.0613,0.3933,0.0,-0.5234,-0.864,-0.2637,-0.316,-0.798,0.566,-0.1484,0.1884,-0.43,-0.5576,-0.1823,-1.229,-0.1747,-0.4531,-0.45,0.0,0.0,-0.4521,0.0,-0.4163,-0.9297,0.0,0.0,0.0,0.0,8.07e-05,-1.0,-1.5,-2.0,0.7324,-0.819,1.0,0.0,0.5,0.0,0.0,0.0,0.0,0.000813
-0.4539,-0.4507,-0.4539,0.7534,-0.86,-0.436,-0.1236,-0.4836,-0.694,0.05533,-0.0294,0.1216,-1.143,-1.192,-1.0,0.0,-0.07684,-0.02814,0.3733,0.0,-0.5215,-1.082,-0.259,-0.3108,-0.8286,0.553,-0.075,-0.1874,-0.431,0.1886,-0.5493,-0.1814,-1.053,-0.4536,-0.4502,0.0,0.0,-0.4524,0.0,-0.4167,-0.8965,0.0,0.0,0.0,0.0,-0.0008187,-1.0,-1.5,-2.0,0.7563,-0.8203,0.0,1.0,0.5,0.0,0.0,0.0,0.0,-0.00821
-0.4539,-0.451,-0.454,0.7656,-0.8726,-0.436,-0.1236,-0.577,-0.685,0.02998,-0.03305,0.1113,-1.143,-1.182,-1.0,0.0,-0.05887,0.003819,0.3533,0.0,-0.5195,-0.8584,-0.2573,-0.3054,-0.8076,0.527,-0.02554,-0.1884,-0.4343,-0.1877,-0.5576,-0.1823,-0.722,-0.4539,-0.4502,0.0,0.0,-0.453,0.0,-0.417,-0.9297,0.0,0.0,0.0,0.0,-0.0002651,-1.0,-1.5,-2.0,0.77,-0.831,0.0,2.0,-0.5,0.0,0.0,0.0,0.0,-0.002672
-0.454,-0.4512,-0.4543,0.861,-0.968,-0.436,-0.1236,-0.5366,-0.7446,-0.0193,-0.03735,0.2307,-1.143,-1.172,-1.0,0.0,-0.0081,0.05096,0.3132,0.0,-0.5176,-0.5767,-0.2598,-0.3008,-0.935,0.5166,-0.03513,-0.3784,-0.4365,-0.1886,0.1887,-0.5493,0.0,-0.4543,-0.4504,0.0,0.0,-0.4531,0.0,-0.418,-1.065,0.0,1.0,0.0,0.0,-0.00098,-1.0,-1.5,-2.0,0.874,-0.913,0.0,3.0,-0.5,0.0,0.0,0.0,0.0,-0.009926
-0.4543,-0.4512,-0.4543,0.5356,-0.643,-0.436,-0.1236,-0.559,-0.396,0.0498,-0.0409,-0.4321,-1.143,-1.161,-1.0,0.0,-0.07666,-0.01727,0.3733,0.0,-0.5156,-0.5894,-0.2686,-0.2976,-0.67,0.5137,-0.2075,0.5737,-0.4421,-0.3792,-0.1877,-0.5576,1.841,-0.4543,-0.4504,0.0,0.0,-0.4534,0.0,-0.4167,-0.8203,0.0,0.0,0.0,0.0,0.0003805,0.0,-1.5,-2.0,0.531,-0.621,1.0,0.0,-0.5,0.0,0.0,0.0,0.0,0.003893
-0.4543,-0.4514,-0.4543,0.2496,-0.357,-0.436,-0.1236,-0.656,-0.09973,0.11755,-0.04263,-0.836,-1.143,-1.151,-1.0,0.0,-0.1471,-0.07697,0.4333,0.0,-0.5137,-0.869,-0.2817,-0.295,-0.3472,0.497,-0.11975,0.565,-0.4485,0.5747,-0.1887,0.1887,-1.229,-0.4543,-0.4504,0.0,0.0,-0.4536,0.0,-0.4155,-0.3945,0.0,0.0,0.0,0.0,0.002594,0.0,-1.0,-1.5,0.2446,-0.3472,2.0,0.0,-0.5,0.0,1.0,0.0,3.06,0.02614
-0.454,-0.4512,-0.4543,-0.5825,0.4783,0.2472,-0.1236,-0.6333,0.795,0.3743,-0.04126,-15.28,-1.0,-1.142,0.0,0.0,-0.372,-0.3147,0.6533,0.0,-0.5117,0.8804,-0.3018,-0.2932,0.5884,0.4966,-0.11176,2.041,-0.45,0.566,-0.3794,-0.1877,-0.1814,-0.454,-0.4504,0.0,0.0,-0.4536,0.0,-0.4111,0.3362,0.0,0.0,0.0,0.0,0.00894,1.0,-0.5,-1.0,-0.4678,0.5806,3.0,0.0,-0.5,0.0,1.0,0.0,6.5,0.08875
-0.454,-0.451,-0.454,-0.663,0.56,0.4263,-0.1236,-0.6465,0.896,0.4163,-0.0395,0.2573,-0.857,-1.131,0.0,0.0,-0.408,-0.35,0.6934,0.0,-0.51,-0.65,-0.324,-0.2937,0.738,0.501,-0.0846,0.3518,-0.4495,2.045,0.5747,-0.1887,-0.1823,-0.4536,-0.4504,0.0,0.0,-0.4536,0.0,-0.4104,0.407,0.0,0.0,0.0,0.0,0.0003228,2.0,0.0,-0.5,-0.619,0.584,4.0,0.0,-0.5,0.0,0.0,0.0,0.0,0.003038
-0.4539,-0.4507,-0.4539,-0.598,0.4934,0.4263,-0.1236,-0.903,0.8896,0.411,-0.0399,0.11884,-0.7144,-1.121,0.0,0.0,-0.421,-0.3271,0.6934,0.0,-0.508,-1.082,-0.331,-0.2957,0.884,0.4685,-0.02075,0.0,-0.449,0.3525,0.566,-0.3794,-0.5493,-0.4531,-0.4504,0.0,0.0,-0.4536,0.0,-0.4104,-0.01868,0.0,0.0,0.0,0.0,0.0,2.0,0.0,-1.0,-0.6177,0.4521,0.0,0.0,-0.5,0.0,0.0,0.0,0.0,0.0
-0.4539,-0.4507,-0.4539,-0.2551,0.1495,0.4263,-0.1236,-0.952,0.5205,0.311,-0.0396,-0.3042,-0.5713,-1.111,0.0,0.0,-0.34,-0.236,0.6133,0.0,-0.506,-0.1231,-0.3352,-0.299,0.6235,0.4502,0.04788,-0.6973,-0.4507,0.0,2.045,0.5747,-0.5576,-0.4526,-0.4507,0.0,0.0,-0.4536,0.0,-0.412,0.1642,0.0,0.0,0.0,0.0,-0.0008535,1.0,0.0,-1.0,-0.2593,0.1392,0.0,1.0,-0.5,0.0,0.0,0.0,0.0,-0.00796
-0.4536,-0.4504,-0.4536,-0.5806,0.4773,0.4263,-0.1236,-0.8154,0.8853,0.4238,-0.03806,0.8237,-0.4285,-1.101,0.0,0.0,-0.4255,-0.3445,0.7134,0.0,-0.504,0.8486,-0.3408,-0.308,0.693,0.5303,0.0511,0.888,-0.4495,-0.698,0.3525,0.566,0.1887,-0.452,-0.451,0.0,0.0,-0.4536,0.0,-0.4102,0.4614,0.0,0.0,0.0,0.0,0.01321,1.0,0.0,-0.5,-0.542,0.4988,1.0,0.0,-0.5,0.0,0.0,0.0,0.0,0.1255
-0.4534,-0.4504,-0.4534,-0.5225,0.4192,0.4263,-0.1236,-0.862,0.8145,0.418,-0.03635,0.04364,-0.2856,-1.091,0.0,0.0,-0.4238,-0.3362,0.7134,0.0,-0.502,-1.082,-0.3452,-0.3196,0.579,0.556,0.0926,0.0,-0.4468,0.8896,0.0,2.045,-0.1877,-0.4514,-0.451,0.0,0.0,-0.4536,0.0,-0.4102,0.5303,0.0,0.0,0.0,0.0,0.0,0.0,0.0,-0.5,-0.513,0.4124,0.0,0.0,-0.5,0.0,0.0,0.0,0.0,0.0
-0.4531,-0.45,-0.4531,-1.006,0.9053,0.4263,-0.1236,-0.7476,1.352,0.6006,-0.0323,0.8066,-0.1428,-1.081,0.0,0.0,-0.561,-0.4954,0.8735,0.0,-0.5,1.01,-0.3396,-0.3335,0.9023,0.6343,0.1357,1.388,-0.439,0.0,-0.6987,0.3525,-0.1887,-0.4507,-0.451,0.0,0.0,-0.4534,0.0,-0.407,0.9966,1.0,0.0,0.0,0.0,0.02708,0.0,0.5,0.0,-0.9424,0.9346,1.0,0.0,-0.5,0.0,0.0,0.0,0.0,0.2512
-0.453,-0.4497,-0.453,-0.7754,0.6753,0.4263,-0.1236,-0.6904,1.035,0.547,-0.02803,-0.1218,0.0,-1.07,0.0,0.0,-0.5156,-0.456,0.8335,0.0,-0.498,-0.1866,-0.3247,-0.343,0.4485,0.7026,0.2091,-0.3345,-0.4346,1.391,0.8896,0.0,-0.3792,-0.4504,-0.451,0.0,0.0,-0.4531,0.0,-0.408,1.071,1.0,0.0,0.0,0.0,-0.006145,0.0,0.5,0.0,-0.7124,0.7144,0.0,1.0,-0.5,0.0,0.0,0.0,0.0,-0.055
-0.4526,-0.4497,-0.453,-0.4958,0.3955,0.4263,-0.1236,-0.626,0.6646,0.4702,-0.02457,-0.248,0.1428,-1.061,0.0,0.0,-0.4504,-0.3972,0.7734,0.0,-0.496,-0.4167,-0.3137,-0.3433,0.1968,0.705,0.2028,-0.5063,-0.4326,-0.3352,0.0,-0.6987,0.5747,-0.4504,-0.451,0.0,0.0,-0.4531,0.0,-0.4092,0.83,1.0,0.0,0.0,0.0,-0.0001903,0.0,0.0,-0.5,-0.4246,0.4553,0.0,2.0,-0.5,0.0,0.0,0.0,0.0,-0.0017185
-0.4526,-0.4497,-0.4526,-0.2368,0.136,0.4263,-0.1236,-0.56,0.3108,0.3936,-0.02156,-0.4146,0.2856,-1.051,0.0,0.0,-0.3833,-0.3367,0.7134,0.0,-0.4941,-0.6533,-0.3032,-0.3403,-0.1276,0.7256,0.1868,-0.513,-0.4314,-0.5073,1.391,0.8896,0.566,-0.4502,-0.4512,0.0,0.0,-0.4531,0.0,-0.4104,0.7007,0.0,0.0,0.0,0.0,-0.0032,-1.0,-0.5,-0.5,-0.1554,0.2174,0.0,3.0,-0.5,0.0,0.0,0.0,0.0,-0.0293
-0.4526,-0.4495,-0.4526,-0.2822,0.1808,0.4263,-0.1236,-0.544,0.279,0.4114,-0.0181,0.03093,0.4285,-1.04,0.0,0.0,-0.3967,-0.353,0.7334,0.0,-0.4922,-0.6567,-0.2952,-0.3362,-0.0737,0.732,0.03354,0.1735,-0.4302,-0.514,-0.3352,0.0,2.045,-0.4502,-0.4512,0.0,0.0,-0.453,0.0,-0.41,0.7915,1.0,0.0,0.0,0.0,0.000271,0.0,-0.5,0.0,-0.2087,0.2517,1.0,0.0,-0.5,0.0,0.0,0.0,0.0,0.002516
-0.4524,-0.4495,-0.4524,-0.3923,0.2896,0.4263,-0.1236,-0.5347,0.3057,0.452,-0.01384,0.2139,0.5713,-1.03,0.0,0.0,-0.4294,-0.3884,0.7734,0.0,-0.4902,-0.4167,-0.2883,-0.3315,0.0221,0.748,0.00798,0.3455,-0.429,0.1738,-0.5073,1.391,0.3525,-0.45,-0.451,0.0,0.0,-0.453,0.0,-0.4092,0.9736,1.0,0.0,0.0,0.0,0.00573,0.0,-0.5,0.5,-0.325,0.3496,2.0,0.0,-0.5,0.0,0.0,0.0,0.0,0.05295
-0.4524,-0.4495,-0.4524,0.07324,-0.1786,0.4263,-0.1236,-0.4216,-0.2656,0.3054,-0.011475,-1.613,0.5713,-1.0205,-1.0,0.0,-0.299,-0.2686,0.6533,0.0,-0.4883,-0.389,-0.2842,-0.3271,-0.46,0.7485,0.014366,-1.026,-0.4302,0.346,-0.514,-0.3352,0.0,-0.4502,-0.451,0.0,0.0,-0.4526,0.0,-0.4116,0.526,0.0,0.0,0.0,0.0,-0.00332,0.0,-0.5,0.0,0.1559,-0.08295,0.0,1.0,-0.5,0.0,0.0,0.0,0.0,-0.0304
-0.4526,-0.4497,-0.453,1.165,-1.27,0.4263,-0.5215,-0.0305,-1.389,-0.02647,-0.012566,6.047,0.5713,-1.01,-1.0,0.0,0.03345,0.02242,0.3733,0.0,-0.4863,-0.5894,-0.2842,-0.3245,-1.527,0.735,0.075,-2.37,-0.4302,-1.028,0.1738,-0.5073,-0.6987,-0.451,-0.4512,0.0,0.0,-0.4526,0.0,-0.417,-0.1788,0.0,0.0,0.0,0.0,-0.021,0.0,-0.5,-0.5,1.251,-1.125,0.0,2.0,-0.5,0.0,0.0,1.0,-6.516,-0.1975
-0.453,-0.45,-0.453,0.651,-0.755,0.4263,-0.5215,-0.2272,-0.932,0.0881,-0.01483,-0.252,0.4285,-1.0,-1.0,0.0,-0.09033,-0.0787,0.4734,0.0,-0.4844,-0.07916,-0.2864,-0.322,-1.117,0.7324,-0.02394,0.9414,-0.4314,-2.373,0.346,-0.514,0.8896,-0.4514,-0.4512,0.0,0.0,-0.4526,0.0,-0.415,-0.4238,0.0,0.0,0.0,0.0,0.00271,1.0,-0.5,-0.5,0.7783,-0.588,1.0,0.0,-0.5,0.0,0.0,0.0,0.0,0.0273
-0.4531,-0.4502,-0.4531,0.8325,-0.9355,0.4263,-0.5215,-0.1752,-1.101,0.01561,-0.01814,0.3384,0.2856,-0.9897,-1.0,0.0,-0.0176,-0.01024,0.4133,0.0,-0.4824,-0.597,-0.2908,-0.3206,-1.338,0.727,-0.0431,-0.5513,-0.4324,0.9434,-1.028,0.1738,0.0,-0.4521,-0.4512,0.0,0.0,-0.4526,0.0,-0.4163,-0.6084,0.0,0.0,0.0,0.0,-0.000986,0.0,-0.5,-1.0,0.9854,-0.7334,0.0,1.0,-0.5,0.0,0.0,0.0,0.0,-0.00969
-0.4534,-0.4502,-0.4534,0.6763,-0.778,0.4263,-0.5215,-0.11005,-0.946,0.0368,-0.02122,-0.03687,0.1428,-0.98,-1.0,0.0,-0.0336,-0.0362,0.4333,0.0,-0.4805,-0.3337,-0.3022,-0.321,-1.126,0.692,-0.1948,0.1864,-0.4343,-0.5522,-2.373,0.346,1.391,-0.4524,-0.4514,0.0,0.0,-0.4526,0.0,-0.416,-0.5615,0.0,0.0,0.0,0.0,0.002169,0.0,-0.5,-0.5,0.8057,-0.607,1.0,0.0,-0.5,0.0,0.0,0.0,0.0,0.02162
-0.4536,-0.4507,-0.4539,1.545,-1.643,0.4263,-0.5215,0.1588,-1.746,-0.2214,-0.02567,1.119,0.0,-0.98,-1.0,-1.0,0.2472,0.2184,0.2131,0.0,-0.4785,1.709,-0.3208,-0.3225,-1.805,0.6343,-0.198,-2.041,-0.4307,0.1868,0.9434,-1.028,-0.3352,-0.4534,-0.4514,0.0,0.0,-0.4526,0.0,-0.4202,-0.742,0.0,0.0,0.0,0.0,-0.03622,0.0,-0.5,-0.5,1.717,-1.39,0.0,1.0,-0.5,0.0,0.0,0.0,0.0,-0.3594
-0.454,-0.4512,-0.454,1.764,-1.859,0.4263,-0.5215,0.1791,-1.925,-0.3152,-0.03198,0.2428,-0.1428,-0.98,-1.0,-1.0,0.3518,0.3242,0.1332,0.0,-0.4766,0.9087,-0.326,-0.3237,-1.898,0.5703,-0.1996,-0.7847,-0.4224,-2.045,-0.5522,-2.373,-0.5073,-0.4543,-0.4517,0.0,0.0,-0.4526,0.0,-0.4219,-1.059,0.0,1.0,0.0,0.0,-0.00951,0.0,-0.5,-1.0,1.977,-1.554,0.0,2.0,-0.5,0.0,0.0,1.0,-6.516,-0.09973
-0.4543,-0.4514,-0.4546,1.33,-1.423,0.4263,-0.5215,0.2495,-1.53,-0.2452,-0.03763,-0.1063,-0.2856,-0.98,-1.0,-1.0,0.2793,0.2388,0.1931,0.0,-0.4746,0.01848,-0.3262,-0.3257,-1.604,0.5586,-0.2028,0.601,-0.4165,-0.786,0.1868,0.9434,-0.514,-0.455,-0.4517,0.0,0.0,-0.453,0.0,-0.4207,-0.9165,0.0,0.0,0.0,0.0,0.000709,0.0,0.0,-0.5,1.504,-1.178,1.0,0.0,-0.5,0.0,0.0,0.0,0.0,0.007603
-0.4548,-0.4517,-0.4548,1.206,-1.3,0.4263,-0.5215,0.01216,-1.34,-0.2446,-0.04492,-0.0161,-0.4285,-0.98,-1.0,-1.0,0.2625,0.255,0.1931,0.0,-0.4727,-1.082,-0.3137,-0.326,-1.401,0.5063,-0.2603,0.0,-0.411,0.602,-2.045,-0.5522,0.1738,-0.4553,-0.452,0.0,0.0,-0.4531,0.0,-0.4207,-1.328,0.0,1.0,0.0,0.0,0.0,0.0,-0.5,-1.0,1.366,-1.074,0.0,0.0,-0.5,0.0,0.0,0.0,0.0,0.0
-0.455,-0.452,-0.455,1.094,-1.189,-0.6646,-0.5215,-0.06696,-1.157,-0.2444,-0.05182,-0.03117,-0.5713,-0.98,-1.0,-1.0,0.2568,0.2603,0.1931,0.0,-0.4707,-0.835,-0.295,-0.3228,-1.1,0.431,-0.3352,0.0,-0.4067,0.0,-0.786,0.1868,0.346,-0.4558,-0.452,0.0,0.0,-0.4534,0.0,-0.4207,-1.297,0.0,1.0,0.0,0.0,0.0,-1.0,-1.0,-1.0,1.23,-0.9927,0.0,0.0,-0.5,0.0,0.0,0.0,0.0,0.0
-0.4553,-0.4521,-0.4553,1.079,-1.176,-0.6646,-0.5215,-0.083,-1.068,-0.268,-0.05838,0.03793,-0.7144,-0.98,-1.0,-1.0,0.2817,0.2886,0.1731,0.0,-0.4685,-0.546,-0.2817,-0.3206,-1.161,0.4248,-0.2856,-0.1973,-0.4033,0.0,0.6025,-2.045,-1.028,-0.456,-0.4521,0.0,0.0,-0.4536,0.0,-0.4211,-1.263,0.0,1.0,0.0,0.0,-0.0002825,-1.0,-1.0,-1.0,1.2,-0.997,0.0,1.0,-0.5,0.0,0.0,0.0,0.0,-0.002981
-0.4556,-0.4524,-0.4556,1.155,-1.253,-0.6646,-0.5215,-0.062,-1.073,-0.3147,-0.06464,0.131,-0.857,-0.98,-1.0,-1.0,0.3347,0.3408,0.1332,0.0,-0.4666,-0.537,-0.27,-0.3171,-1.175,0.3855,-0.1006,-0.3965,-0.399,-0.1976,0.0,-0.786,-2.373,-0.4565,-0.4521,0.0,0.0,-0.4539,0.0,-0.4219,-1.244,0.0,1.0,0.0,0.0,-0.002098,-1.0,-1.0,-1.0,1.289,-1.058,0.0,2.0,-0.5,0.0,0.0,0.0,0.0,-0.02226
-0.4558,-0.453,-0.456,1.137,-1.235,-0.6646,-0.5215,-0.1052,-0.976,-0.338,-0.0713,0.02101,-1.0,-0.98,-1.0,-1.0,0.358,0.371,0.1131,0.0,-0.4646,-1.082,-0.2622,-0.311,-1.221,0.3755,-0.1996,-0.2004,-0.3965,-0.3972,0.0,0.6025,0.9434,-0.4568,-0.4521,0.0,0.0,-0.4543,0.0,-0.422,-1.325,0.0,1.0,0.0,0.0,-0.0002651,-2.0,-1.5,-1.5,1.264,-1.047,0.0,3.0,-0.5,0.0,0.0,0.0,0.0,-0.002844
-0.4563,-0.4531,-0.4563,1.582,-1.683,-0.6646,-0.5215,0.0986,-1.28,-0.4773,-0.0796,0.4917,-1.143,-0.98,-1.0,-1.0,0.535,0.527,-0.00698,0.0,-0.4626,0.9985,-0.2485,-0.2983,-1.267,0.2583,-0.1804,-1.209,-0.3926,-0.2007,-0.1976,0.0,-0.5522,-0.457,-0.4524,0.0,0.0,-0.4546,0.0,-0.4246,-1.538,0.0,1.0,0.0,0.0,-0.01021,-2.0,-1.5,-2.0,1.705,-1.4795,0.0,4.0,-0.5,0.0,0.0,1.0,-3.227,-0.11
-0.4565,-0.4536,-0.4568,1.818,-1.92,-0.8916,-0.5215,0.3467,-1.422,-0.5693,-0.0874,0.254,-1.143,-0.98,-1.0,-1.0,0.666,0.628,-0.08704,0.0,-0.4607,2.281,-0.2345,-0.2834,-1.315,0.184,-0.2299,-0.8325,-0.3923,-1.211,-0.3972,0.0,0.1868,-0.4575,-0.4526,0.0,0.0,-0.455,0.0,-0.426,-1.514,0.0,1.0,0.0,0.0,-0.01057,-2.0,-1.5,-2.0,1.836,-1.82,0.0,5.0,-0.5,0.0,0.0,0.0,0.0,-0.1176
-0.457,-0.454,-0.4573,1.846,-1.946,-0.8916,-0.5215,0.1149,-1.455,-0.6147,-0.0926,0.1528,-1.143,-0.98,-1.0,-1.0,0.708,0.7046,-0.1271,0.0,-0.4587,-0.1614,-0.2228,-0.2705,-1.285,0.1339,-0.09576,-0.4258,-0.3928,-0.834,-0.2008,-0.1976,-2.045,-0.458,-0.4526,0.0,0.0,-0.4558,0.0,-0.427,-1.317,0.0,1.0,0.0,0.0,-0.00332,-2.0,-1.5,-2.0,1.834,-1.877,0.0,5.0,-0.5,0.5,0.0,0.0,0.0,-0.0378
-0.4573,-0.4543,-0.4575,1.286,-1.388,-0.8916,-0.5215,0.0664,-0.92,-0.52,-0.0981,-0.2957,-1.143,-0.98,-1.0,-1.0,0.5854,0.5835,-0.047,0.0,-0.4568,0.1144,-0.2156,-0.2588,-0.731,0.0935,-0.05908,0.8613,-0.396,-0.4265,-1.211,-0.3972,-0.786,-0.4583,-0.453,0.0,0.0,-0.4563,0.0,-0.4253,-1.398,0.0,1.0,0.0,0.0,0.01245,-1.0,-1.5,-2.0,1.304,-1.311,1.0,0.0,-0.5,0.5,0.0,0.0,0.0,0.1434
-0.4578,-0.4546,-0.4578,1.355,-1.458,-0.8916,-0.5215,0.11884,-0.9487,-0.5664,-0.10345,0.1628,-1.143,-0.98,-1.0,-1.0,0.6465,0.64,-0.08704,0.0,-0.4548,0.1316,-0.2151,-0.25,-0.8345,0.07477,-0.12134,-0.4211,-0.399,0.863,-0.8345,-0.2008,0.6025,-0.4587,-0.4531,0.0,0.0,-0.4565,0.0,-0.426,-1.379,0.0,1.0,0.0,0.0,-0.003586,-1.0,-1.5,-2.0,1.386,-1.364,0.0,1.0,-0.5,0.5,0.0,0.0,0.0,-0.04037
-0.458,-0.4548,-0.4583,1.421,-1.524,-0.8916,-0.5215,0.2588,-0.9585,-0.6133,-0.1095,0.1383,-1.143,-0.98,-1.0,-1.0,0.716,0.6924,-0.1271,0.0,-0.453,0.46,-0.2148,-0.2417,-0.7676,0.01848,-0.1437,-0.4258,-0.404,-0.4219,-0.4268,-1.211,0.0,-0.4592,-0.4534,0.0,0.0,-0.457,0.0,-0.4268,-1.5,0.0,1.0,0.0,0.0,-0.003714,-1.0,-1.5,-2.0,1.355,-1.529,0.0,2.0,-0.5,0.5,0.0,1.0,-3.334,-0.0423
-0.4583,-0.4553,-0.4585,1.288,-1.393,-0.8916,-0.5215,-0.0002632,-0.847,-0.613,-0.11316,-0.00929,-1.143,-0.98,-1.0,-1.0,0.6978,0.7104,-0.1271,0.0,-0.451,-0.7827,-0.2128,-0.2347,-0.4995,-0.0386,-0.1692,0.0,-0.4146,-0.4265,0.8633,-0.8345,0.0,-0.4595,-0.4536,0.0,0.0,-0.4575,0.0,-0.4268,-1.247,0.0,1.0,0.0,0.0,0.0,-1.0,-1.5,-2.0,1.187,-1.441,0.0,0.0,-0.5,0.5,0.0,0.0,0.0,0.0
-0.4585,-0.4556,-0.4587,1.073,-1.177,-0.8916,-0.5215,-0.1265,-0.6714,-0.589,-0.11566,-0.11896,-1.143,-0.98,-1.0,-1.0,0.658,0.6875,-0.10706,0.0,-0.449,0.1404,-0.2104,-0.2297,-0.2341,-0.0732,-0.1788,0.2153,-0.4238,0.0,-0.4219,-0.4268,-0.1976,-0.4597,-0.4539,0.0,0.0,-0.458,0.0,-0.4263,-0.9907,0.0,1.0,0.0,0.0,0.007076,0.0,-1.5,-2.0,0.959,-1.249,1.0,0.0,-0.5,0.5,0.0,0.0,0.0,0.0815
-0.4587,-0.4556,-0.4587,0.696,-0.8,-0.8916,-0.4075,-0.2151,-0.2993,-0.5186,-0.1182,-0.5405,-1.143,-0.98,-1.0,-1.0,0.564,0.6016,-0.047,0.0,-0.447,-0.4932,-0.2155,-0.2279,0.06744,-0.0744,-0.1692,0.6426,-0.426,0.2157,-0.4268,0.8633,-0.3972,-0.4597,-0.454,0.0,0.0,-0.4583,0.0,-0.425,-0.9907,0.0,1.0,0.0,0.0,0.01067,0.0,-1.0,-2.0,0.6274,-0.8384,2.0,0.0,-0.5,0.5,0.0,0.0,0.0,0.12225
-0.459,-0.4558,-0.459,1.003,-1.107,-0.9326,-0.4075,-0.0867,-0.5806,-0.612,-0.12164,1.401,-1.143,-0.98,-1.0,-1.0,0.691,0.7153,-0.1271,0.0,-0.445,-0.7827,-0.2227,-0.2291,-0.284,-0.0832,-0.1676,-0.8423,-0.4316,0.6436,0.0,-0.4219,-0.2008,-0.4597,-0.4546,0.0,0.0,-0.4585,0.0,-0.4268,-1.144,0.0,1.0,0.0,0.0,-0.02618,0.0,-1.0,-2.0,0.9697,-1.096,0.0,1.0,-0.5,0.5,0.0,0.0,0.0,-0.2947
-0.459,-0.456,-0.4592,0.541,-0.646,-0.9326,-0.4075,0.03824,-0.1055,-0.5186,-0.1243,-0.873,-1.143,-0.98,-1.0,-1.0,0.5815,0.584,-0.047,0.0,-0.443,1.025,-0.2294,-0.2338,0.1271,-0.0863,-0.091,0.8613,-0.4385,-0.8438,0.2158,-0.4268,-1.211,-0.4597,-0.4548,0.0,0.0,-0.4587,0.0,-0.425,-0.787,0.0,0.0,0.0,0.0,0.005974,1.0,-0.5,-1.5,0.555,-0.6035,1.0,0.0,-0.5,0.5,0.0,0.0,0.0,0.0688
-0.4592,-0.456,-0.4595,0.7656,-0.872,-0.9326,-0.4075,0.1598,-0.3035,-0.5894,-0.1274,4.57,-1.143,-0.98,-1.0,-1.0,0.6787,0.668,-0.10706,0.0,-0.4412,0.4495,-0.2422,-0.2402,-0.1608,-0.08813,-0.03033,-0.6313,-0.4478,0.863,0.6436,0.0,-0.8345,-0.4597,-0.455,0.0,0.0,-0.4592,0.0,-0.4263,-0.862,0.0,0.0,0.0,0.0,-0.001938,1.0,-0.5,-1.5,0.786,-0.8135,0.0,1.0,-0.5,0.5,0.0,0.0,0.0,-0.02182
-0.4595,-0.4563,-0.4595,0.882,-0.9897,-0.9326,-0.4075,0.2722,-0.4043,-0.636,-0.1304,0.576,-1.143,-0.98,-1.0,-1.0,0.7466,0.7227,-0.1471,0.0,-0.4392,0.4707,-0.2578,-0.247,-0.3223,-0.0956,0.0,-0.4282,-0.4492,-0.633,-0.8438,0.2158,-0.4268,-0.4597,-0.4556,0.0,0.0,-0.4592,0.0,-0.427,-0.862,0.0,0.0,0.0,0.0,-0.002214,0.0,-0.5,-1.5,0.9126,-0.915,0.0,2.0,-0.5,0.5,0.0,0.0,0.0,-0.02536
-0.4597,-0.4565,-0.4597,1.186,-1.295,-0.9326,-0.4075,0.4753,-0.6855,-0.729,-0.134,1.018,-1.143,-0.98,-1.0,-1.0,0.885,0.838,-0.2272,0.0,-0.4373,0.515,-0.2817,-0.2537,-0.6875,-0.10205,-0.0654,-0.866,-0.4475,-0.429,0.8633,0.6436,0.8633,-0.4597,-0.4558,0.0,0.0,-0.4595,0.0,-0.4285,-0.961,0.0,1.0,0.0,0.0,-0.008,-1.0,-1.0,-1.5,1.189,-1.236,0.0,3.0,-0.5,0.5,0.0,0.0,0.0,-0.0927
-0.46,-0.457,-0.4602,1.581,-1.689,-0.9326,-0.4075,0.4604,-1.078,-0.8447,-0.1372,0.8145,-1.143,-0.98,-1.0,-1.0,1.047,1.009,-0.3271,0.0,-0.4353,-0.08563,-0.296,-0.2615,-0.992,-0.1428,-0.04788,-1.108,-0.445,-0.868,-0.633,-0.8438,-0.4219,-0.4602,-0.4563,0.0,0.0,-0.4597,0.0,-0.4304,-0.9297,0.0,0.0,0.0,0.0,-0.0363,-1.0,-1.0,-1.5,1.588,-1.611,0.0,4.0,-0.5,0.5,0.0,1.0,-6.285,-0.4304
-0.4604,-0.4573,-0.4607,1.857,-1.964,-0.9326,-0.751,0.2725,-1.375,-0.937,-0.1405,0.4463,-1.143,-0.98,-1.0,-1.0,1.172,1.166,-0.4072,0.0,-0.4333,-0.7285,-0.3035,-0.2688,-1.201,-0.1837,-0.03513,-0.914,-0.4417,-1.11,-0.4292,0.8633,-0.4268,-0.4607,-0.4565,0.0,0.0,-0.4602,0.0,-0.432,-0.9297,0.0,0.0,0.0,0.0,-0.02826,-2.0,-1.0,-1.5,1.884,-1.854,0.0,5.0,-0.5,0.5,0.0,1.0,-4.19,-0.3452
-0.4607,-0.4575,-0.461,1.368,-1.473,-0.9326,-0.751,0.1685,-0.995,-0.8657,-0.1427,-0.1913,-1.143,-0.98,-1.0,-1.0,1.058,1.062,-0.3472,0.0,-0.4314,-0.4092,-0.31,-0.275,-0.858,-0.1915,-0.05746,0.7026,-0.4424,-0.9155,-0.868,-0.633,0.0,-0.4612,-0.457,0.0,0.0,-0.4604,0.0,-0.4307,-0.6475,0.0,0.0,0.0,0.0,0.00481,-1.0,-0.5,-1.0,1.397,-1.379,1.0,0.0,-0.5,0.5,0.0,0.0,0.0,0.06024
-0.4607,-0.4575,-0.461,0.00497,-0.10657,0.508,-0.751,0.2327,0.3442,-0.5615,-0.1432,-1.447,-1.0,-0.98,0.0,-1.0,0.648,0.6255,-0.08704,0.0,-0.4294,2.281,-0.3162,-0.2837,0.512,-0.2001,-0.091,2.51,-0.4478,0.704,-1.111,-0.4292,0.2158,-0.4612,-0.4573,0.0,0.0,-0.4607,0.0,-0.4255,-0.1592,0.0,0.0,0.0,0.0,0.00877,0.0,-0.5,-1.0,0.1873,0.0922,2.0,0.0,-0.5,0.5,1.0,0.0,7.53,0.10785
-0.4607,-0.4575,-0.461,0.09564,-0.1979,0.508,-0.751,0.1598,0.2496,-0.5845,-0.1434,-0.134,-0.857,-0.98,0.0,-1.0,0.6724,0.661,-0.10706,0.0,-0.4275,-0.7866,-0.3245,-0.2937,0.4353,-0.2048,-0.1373,-0.2129,-0.4526,2.514,-0.916,-0.868,0.6436,-0.4612,-0.4575,0.0,0.0,-0.4607,0.0,-0.4258,-0.1172,0.0,0.0,0.0,0.0,-0.000369,0.0,-1.0,-1.0,0.2659,-0.00806,0.0,1.0,-0.5,0.5,0.0,0.0,0.0,-0.004204
-0.461,-0.4578,-0.461,0.5474,-0.651,0.508,-0.751,0.1362,-0.2316,-0.7017,-0.1442,-1.607,-0.857,-0.98,-1.0,-1.0,0.824,0.8228,-0.2072,0.0,-0.4255,-0.1322,-0.3298,-0.3079,-0.0688,-0.2063,-0.07825,-1.07,-0.4575,-0.2133,0.704,-1.111,-0.8438,-0.4612,-0.4578,0.0,0.0,-0.461,0.0,-0.428,-0.2382,0.0,0.0,0.0,0.0,-0.001787,0.0,-1.0,-1.0,0.766,-0.3906,0.0,2.0,-0.5,0.5,0.0,0.0,0.0,-0.02048
-0.461,-0.4578,-0.4612,0.4985,-0.601,0.508,-0.751,0.313,-0.2026,-0.7007,-0.145,-0.05594,-0.857,-0.98,-1.0,-1.0,0.835,0.809,-0.2072,0.0,-0.4236,1.14,-0.3313,-0.3174,-0.03934,-0.212,-0.1484,0.0,-0.459,-1.072,2.514,-0.916,0.8633,-0.4612,-0.458,0.0,0.0,-0.461,0.0,-0.4277,-0.2382,0.0,0.0,0.0,0.0,0.0,0.0,-1.5,-1.0,0.708,-0.3525,0.0,0.0,-0.5,0.5,0.0,0.0,0.0,0.0
-0.4612,-0.458,-0.4614,0.838,-0.941,0.508,-0.751,0.3396,-0.548,-0.7935,-0.1467,2.732,-0.857,-0.98,-1.0,-1.0,0.965,0.941,-0.287,0.0,-0.4216,-0.753,-0.3296,-0.3237,-0.3345,-0.2349,-0.11334,-0.882,-0.458,0.0,-0.2134,0.704,-0.633,-0.4612,-0.4583,0.0,0.0,-0.4612,0.0,-0.4294,-0.4238,0.0,0.0,0.0,0.0,-0.001038,-1.0,-1.5,-1.5,1.056,-0.6694,0.0,1.0,-0.5,0.5,0.0,0.0,0.0,-0.01224
-0.4614,-0.4583,-0.4617,1.478,-1.58,0.508,-0.751,0.571,-1.137,-0.9556,-0.1505,1.446,-0.857,-0.98,-1.0,-1.0,1.221,1.174,-0.4272,0.0,-0.4197,0.976,-0.3274,-0.3284,-0.9126,-0.2642,-0.09576,-1.58,-0.453,-0.8833,-1.073,2.514,-0.4292,-0.4612,-0.4585,0.0,0.0,-0.4612,0.0,-0.4321,-0.7627,0.0,0.0,0.0,0.0,-0.02087,-2.0,-1.5,-2.0,1.725,-1.25,0.0,2.0,-0.5,0.5,0.0,0.0,0.0,-0.252
-0.462,-0.4587,-0.4622,2.47,-2.176,0.508,-1.186,0.9478,-2.008,-1.1875,-0.1555,1.016,-0.857,-0.98,-1.0,-1.0,1.627,1.545,-0.6274,0.0,-0.4177,1.136,-0.3218,-0.3303,-1.721,-0.3135,-0.0543,-2.357,-0.4412,-1.583,0.0,-0.2134,-0.868,-0.4617,-0.4587,0.0,0.0,-0.4617,0.0,-0.436,-0.8965,0.0,0.0,0.0,0.0,-0.01563,-2.0,-1.5,-2.0,2.787,-2.05,0.0,3.0,-0.5,0.5,0.0,1.0,-6.516,-0.197
-0.4624,-0.4592,-0.4626,2.73,-2.176,0.508,-1.6875,0.996,-2.098,-1.279,-0.1622,0.2406,-0.857,-0.98,-1.0,-1.0,1.795,1.712,-0.7075,0.0,-0.4158,0.833,-0.3125,-0.3298,-1.853,-0.3748,-0.006386,-1.006,-0.4292,-2.361,-0.8833,-1.073,-1.11,-0.4626,-0.459,0.0,0.0,-0.462,0.0,-0.4375,-1.16,0.0,1.0,0.0,0.0,-0.01727,-2.0,-1.5,-2.0,2.787,-2.05,0.0,4.0,-0.5,0.5,0.0,1.0,-6.516,-0.2324
-0.4631,-0.46,-0.4634,2.732,-2.176,0.508,-2.592,1.187,-2.098,-1.44,-0.1696,0.385,-0.857,-0.98,-1.0,-1.0,2.12,2.023,-0.8477,0.0,-0.4138,1.338,-0.3008,-0.3245,-1.947,-0.436,0.02715,-1.81,-0.414,-1.008,-1.583,0.0,-0.9155,-0.4639,-0.4595,0.0,0.0,-0.4624,0.0,-0.44,-1.221,0.0,1.0,0.0,0.0,-0.03427,-2.0,-1.5,-2.0,2.787,-2.05,0.0,5.0,-0.5,0.5,0.0,0.0,0.0,-0.4736
-0.4636,-0.4604,-0.4639,2.732,-2.176,0.508,-2.727,1.101,-2.098,-1.46,-0.1768,0.0726,-0.857,-0.98,-1.0,-1.0,2.156,2.072,-0.8677,0.0,-0.4119,-0.2203,-0.2888,-0.3162,-1.947,-0.487,-0.05588,-0.2715,-0.4023,-1.8125,-2.361,-0.8833,0.704,-0.4648,-0.46,0.0,0.0,-0.4626,0.0,-0.4402,-1.206,0.0,1.0,0.0,0.0,-0.004124,-2.0,-1.5,-2.0,2.787,-2.05,0.0,5.0,-0.5,0.5,0.0,0.0,0.0,-0.05988
-0.4644,-0.4612,-0.4644,2.732,-2.176,0.508,-2.727,0.9907,-2.098,-1.457,-0.1831,0.03146,-0.857,-0.98,-1.0,-1.0,2.14,2.074,-0.8677,0.0,-0.41,-0.2203,-0.2793,-0.3074,-1.947,-0.523,-0.305,0.0,-0.3943,-0.272,-1.008,-1.583,2.514,-0.4648,-0.4602,0.0,0.0,-0.4631,0.0,-0.4402,-1.144,0.0,1.0,0.0,0.0,0.0,-2.0,-1.5,-2.0,2.787,-2.05,0.0,0.0,-0.5,0.5,0.0,0.0,0.0,0.0
-0.4646,-0.4614,-0.4648,1.994,-2.078,0.508,-2.727,0.919,-1.653,-1.335,-0.1873,-0.2147,-0.857,-0.98,-1.0,-1.0,1.895,1.827,-0.7676,0.0,-0.408,1.261,-0.2664,-0.2979,-1.117,-0.583,-0.3513,1.367,-0.3923,0.0,-1.8125,-2.361,-0.2134,-0.4648,-0.4607,0.0,0.0,-0.4636,0.0,-0.4382,-0.809,0.0,0.0,0.0,0.0,0.01003,-1.0,-1.5,-2.0,2.352,-1.609,1.0,0.0,-0.5,0.5,0.0,0.0,0.0,0.1469
-0.4648,-0.4617,-0.465,1.568,-1.651,0.508,-2.727,0.808,-1.31,-1.284,-0.1901,-0.11115,-0.857,-0.98,-1.0,-1.0,1.791,1.735,-0.7275,0.0,-0.4058,-0.2778,-0.252,-0.2883,-0.6104,-0.6323,-0.324,0.528,-0.3914,1.37,-0.272,-1.008,-1.072,-0.4648,-0.461,0.0,0.0,-0.4639,0.0,-0.4375,-0.626,0.0,0.0,0.0,0.0,0.002491,0.0,-1.5,-1.5,1.922,-1.204,2.0,0.0,-0.5,0.5,0.0,0.0,0.0,0.03516
-0.465,-0.462,-0.4653,1.541,-1.623,0.508,-2.727,0.8984,-1.271,-1.304,-0.1937,0.0935,-0.857,-0.98,-1.0,-1.0,1.834,1.767,-0.7476,0.0,-0.4038,0.486,-0.2422,-0.281,-0.6235,-0.651,-0.3655,-0.2603,-0.393,0.529,0.0,-1.8125,0.0,-0.4648,-0.4612,0.0,0.0,-0.4644,0.0,-0.4377,-0.787,0.0,0.0,0.0,0.0,-0.000669,0.0,-1.5,-2.0,1.743,-1.339,0.0,1.0,-0.5,0.5,0.0,0.0,0.0,-0.00931
-0.4656,-0.4624,-0.4656,1.636,-1.722,0.508,-2.727,0.656,-1.233,-1.348,-0.2007,0.0919,-1.0,-0.98,-1.0,-1.0,1.9,1.87,-0.7876,0.0,-0.4019,0.5127,-0.2365,-0.276,-0.7837,-0.664,-0.3447,-0.524,-0.394,-0.2607,1.37,-0.272,-0.8833,-0.4648,-0.4614,0.0,0.0,-0.4646,0.0,-0.4385,-1.545,0.0,1.0,0.0,0.0,-0.0007267,0.0,-1.5,-2.0,1.857,-1.413,0.0,2.0,-0.5,0.5,0.0,0.0,0.0,-0.010185
-0.4656,-0.4624,-0.4658,1.483,-1.569,0.508,-2.727,1.082,-0.967,-1.343,-0.2073,-0.124,-1.143,-0.98,-1.0,-1.0,1.921,1.831,-0.7876,0.0,-0.4,3.123,-0.2316,-0.2708,-0.4905,-0.715,-0.273,0.0,-0.3958,-0.525,0.529,0.0,-1.583,-0.4648,-0.4617,0.0,0.0,-0.465,0.0,-0.4382,-1.545,0.0,1.0,0.0,0.0,0.0,0.0,-1.5,-2.0,1.6455,-1.33,0.0,0.0,-0.5,0.5,0.0,0.0,0.0,0.0
-0.4656,-0.4624,-0.4658,1.465,-1.554,0.508,-2.727,1.068,-0.8433,-1.362,-0.213,-0.02332,-1.143,-0.98,-1.0,-1.0,1.958,1.872,-0.8076,0.0,-0.398,0.1404,-0.232,-0.2678,-0.555,-0.724,-0.1421,-0.2659,-0.3962,0.0,-0.2607,1.37,-2.361,-0.4648,-0.462,0.0,0.0,-0.4653,0.0,-0.4385,-1.532,0.0,1.0,0.0,0.0,-0.001984,-1.0,-1.5,-2.0,1.646,-1.294,0.0,1.0,-0.5,0.5,0.0,0.0,0.0,-0.0282
-0.4656,-0.4624,-0.4658,1.82,-1.915,0.508,-2.727,1.16,-1.048,-1.453,-0.2196,0.413,-1.143,-0.98,-1.0,-1.0,2.145,2.055,-0.8877,0.0,-0.396,0.981,-0.2349,-0.264,-0.7617,-0.772,-0.0926,-1.07,-0.3945,-0.2664,-0.5254,0.529,-1.008,-0.4648,-0.4622,0.0,0.0,-0.4653,0.0,-0.44,-1.545,0.0,1.0,0.0,0.0,-0.01587,-2.0,-1.5,-2.0,2.006,-1.638,0.0,2.0,-0.5,0.5,0.0,0.0,0.0,-0.2272
-0.4656,-0.4624,-0.4658,1.647,-1.748,0.508,-2.727,1.123,-0.798,-1.45,-0.2255,-0.1516,-1.143,-0.98,-1.0,-1.0,2.135,2.049,-0.8877,0.0,-0.394,-0.2117,-0.2424,-0.2607,-0.7266,-0.778,0.004787,0.0,-0.3926,-1.072,0.0,-0.2607,-1.8125,-0.4648,-0.4624,0.0,0.0,-0.4653,0.0,-0.44,-1.532,0.0,1.0,0.0,0.0,0.0,-2.0,-1.5,-2.0,1.746,-1.569,0.0,0.0,-0.5,0.5,0.0,0.0,0.0,0.0
-0.4656,-0.4624,-0.4658,0.5474,-0.6514,0.508,-2.727,1.017,0.326,-1.257,-0.2283,-1.545,-1.0,-0.98,0.0,-1.0,1.755,1.667,-0.7275,0.0,-0.392,1.6,-0.253,-0.2588,0.418,-0.8027,0.01756,2.205,-0.3943,0.0,-0.2664,-0.5254,-0.272,-0.4648,-0.4626,0.0,0.0,-0.4653,0.0,-0.4368,-0.787,0.0,0.0,0.0,0.0,0.0483,-1.0,-1.0,-2.0,0.648,-0.5166,1.0,0.0,-1.0,0.5,0.0,0.0,0.0,0.712
-0.4656,-0.4624,-0.4658,0.2786,-0.3833,0.0159,-2.727,0.838,0.6025,-1.206,-0.2285,0.9243,-0.857,-0.98,0.0,-1.0,1.651,1.586,-0.6875,0.0,-0.3901,0.4473,-0.2659,-0.2593,0.6465,-0.8,0.02873,0.5205,-0.4048,2.209,-1.073,0.0,0.0,-0.4648,-0.463,0.0,0.0,-0.4653,0.0,-0.4358,-0.2471,0.0,0.0,0.0,0.0,0.007137,0.0,-0.5,-1.5,0.3608,-0.2793,2.0,0.0,-1.0,0.5,0.0,0.0,0.0,0.09937
-0.4656,-0.4624,-0.4658,0.4734,-0.578,0.0159,-2.727,0.9824,0.3623,-1.251,-0.2281,-0.2756,-0.7144,-0.98,0.0,-1.0,1.742,1.659,-0.7275,0.0,-0.3882,2.35,-0.2793,-0.262,0.3628,-0.7944,-0.0367,-0.513,-0.4172,0.5215,0.0,-0.2664,1.37,-0.4648,-0.4631,0.0,0.0,-0.4653,0.0,-0.4365,-0.1346,0.0,0.0,0.0,0.0,-0.01179,0.0,-1.0,-1.5,0.4866,-0.5396,0.0,1.0,-1.0,0.5,0.0,0.0,0.0,-0.1619
-0.4656,-0.4624,-0.4658,0.5425,-0.6475,0.0159,-2.727,0.9683,0.1925,-1.272,-0.2267,-0.321,-0.5713,-0.98,0.0,-1.0,1.78,1.701,-0.7476,0.0,-0.3862,0.8643,-0.2925,-0.2673,0.1959,-0.7876,-0.0654,-0.2603,-0.428,-0.514,2.209,-1.073,0.529,-0.4648,-0.4631,0.0,0.0,-0.4653,0.0,-0.4368,0.2954,0.0,0.0,0.0,0.0,-0.004894,0.0,-1.5,-1.5,0.5547,-0.607,0.0,2.0,-1.0,0.5,0.0,0.0,0.0,-0.0681
-0.4656,-0.4624,-0.4658,0.3823,-0.4875,0.0159,-2.727,0.9126,0.2537,-1.246,-0.2247,0.3972,-0.4285,-0.98,0.0,-1.0,1.729,1.654,-0.7275,0.0,-0.3843,-1.029,-0.3052,-0.2754,0.279,-0.7812,-0.0511,0.262,-0.4426,-0.2607,0.5215,0.0,-0.2607,-0.4648,-0.4631,0.0,0.0,-0.4653,0.0,-0.4363,0.443,0.0,0.0,0.0,0.0,0.000715,1.0,-1.0,-1.0,0.413,-0.4338,1.0,0.0,-1.0,0.5,0.0,0.0,0.0,0.010025
-0.4656,-0.4624,-0.4658,0.459,-0.565,0.0159,-2.727,0.9336,0.07605,-1.267,-0.223,-0.5054,-0.2856,-0.98,0.0,-1.0,1.769,1.693,-0.7476,0.0,-0.3823,-0.27,-0.3193,-0.2854,0.11975,-0.7754,-0.01756,-0.2603,-0.4583,0.2625,-0.514,2.209,-0.525,-0.4648,-0.4631,0.0,0.0,-0.4653,0.0,-0.4368,0.3545,0.0,0.0,0.0,0.0,-0.0009513,0.0,-1.0,-1.0,0.4365,-0.565,0.0,1.0,-1.0,0.5,0.0,0.0,0.0,-0.013245
-0.4656,-0.4624,-0.4658,0.876,-0.9824,0.0159,-2.727,0.947,-0.3926,-1.359,-0.2231,-3.773,-0.2856,-0.98,-1.0,-1.0,1.943,1.874,-0.8276,0.0,-0.3804,0.1515,-0.3303,-0.297,-0.3687,-0.776,-0.014366,-1.048,-0.4663,-0.2607,-0.2607,0.5215,0.0,-0.4648,-0.4631,0.0,0.0,-0.4653,0.0,-0.4382,-0.295,0.0,0.0,0.0,0.0,-0.01109,-1.0,-1.0,-1.5,0.8696,-0.9478,0.0,2.0,-1.0,0.5,0.0,0.0,0.0,-0.1555
-0.4656,-0.4624,-0.4658,0.451,-0.5566,0.0159,-2.727,0.919,-0.003284,-1.285,-0.2231,-1.15,-0.1428,-0.98,0.0,-1.0,1.801,1.729,-0.7676,0.0,-0.3784,0.11865,-0.338,-0.309,0.01973,-0.779,-0.001596,0.8086,-0.4663,-1.05,0.2627,-0.514,-0.2664,-0.4648,-0.4631,0.0,0.0,-0.4653,0.0,-0.4368,-0.2162,0.0,0.0,0.0,0.0,0.0188,0.0,-0.5,-1.5,0.4841,-0.4978,1.0,0.0,-1.0,0.5,0.0,0.0,0.0,0.2712
-0.4656,-0.4624,-0.4658,0.1898,-0.2952,0.0159,-2.727,0.878,0.2356,-1.234,-0.2225,5.086,0.0,-0.98,0.0,-1.0,1.705,1.636,-0.7275,0.0,-0.3765,0.473,-0.3464,-0.3206,0.2297,-0.773,0.0654,0.528,-0.4663,0.81,-0.2607,-0.2607,-1.072,-0.4648,-0.4631,0.0,0.0,-0.4653,0.0,-0.436,-0.00451,0.0,0.0,0.0,0.0,0.01386,1.0,0.0,-1.0,0.2305,-0.2394,2.0,0.0,-1.0,0.5,0.0,0.0,0.0,0.1957
-0.4656,-0.4624,-0.4658,-0.03976,-0.0644,0.0159,-2.727,0.941,0.4377,-1.185,-0.2211,0.89,0.1428,-0.98,0.0,-1.0,1.621,1.539,-0.6875,0.0,-0.3745,1.559,-0.3567,-0.3308,0.3752,-0.7573,0.07825,0.5205,-0.4663,0.529,-1.051,0.2627,0.0,-0.4648,-0.4631,0.0,0.0,-0.4653,0.0,-0.435,0.2717,0.0,0.0,0.0,0.0,0.01755,1.0,0.5,-0.5,0.03226,0.01523,3.0,0.0,-1.0,0.5,0.0,0.0,0.0,0.2444
-0.4656,-0.4624,-0.4658,-1.295,1.197,1.272,0.554,0.697,1.868,-0.8716,-0.217,3.316,0.2856,-0.98,0.0,-1.0,1.103,1.033,-0.4272,0.0,-0.3726,3.123,-0.3562,-0.3403,1.649,-0.7104,-0.03354,2.51,-0.4612,0.5215,0.8105,-0.2607,2.209,-0.4648,-0.4631,1.0,-1.0,-0.4653,0.0,-0.4297,0.802,1.0,0.0,0.0,0.0,0.11115,2.0,0.5,0.0,-1.055,1.403,4.0,0.0,-0.5,0.5,0.0,0.0,0.0,1.526
-0.4656,-0.4624,-0.4658,-1.645,1.934,2.78,0.554,0.9263,2.152,-0.5596,-0.2101,0.849,0.4285,-0.98,0.0,-1.0,0.693,0.5737,-0.1671,0.0,-0.3706,3.123,-0.3433,-0.3477,2.041,-0.641,-0.0415,2.51,-0.4385,2.514,0.529,-1.051,0.5215,-0.4648,-0.4631,0.0,0.0,-0.4653,0.0,-0.4246,1.149,1.0,0.0,0.0,0.0,0.1147,3.0,0.5,0.5,-1.446,2.125,5.0,0.0,0.0,0.5,1.0,0.0,7.53,1.446
-0.4656,-0.4624,-0.4658,-1.645,1.865,2.78,0.554,0.7974,2.152,-0.5835,-0.2025,-0.03586,0.5713,-0.98,0.0,-1.0,0.7144,0.6147,-0.1871,0.0,-0.3687,-0.4558,-0.3313,-0.35,2.041,-0.621,0.03192,-0.2179,-0.4246,2.514,0.5215,0.8105,-0.514,-0.4646,-0.4631,0.0,0.0,-0.4653,0.0,-0.425,1.34,1.0,0.0,0.0,0.0,-0.0006804,2.0,0.5,0.5,-1.446,2.125,0.0,1.0,0.0,0.5,0.0,0.0,0.0,-0.00793
-0.4656,-0.4624,-0.4658,-1.645,1.837,2.78,0.554,0.8804,2.152,-0.535,-0.1946,0.0766,0.7144,-0.98,0.0,-1.0,0.6597,0.546,-0.1471,0.0,-0.3667,0.783,-0.3213,-0.3484,2.041,-0.601,0.091,0.4382,-0.4124,-0.2183,2.514,0.529,-0.2607,-0.4634,-0.4631,0.0,0.0,-0.4653,0.0,-0.424,1.366,1.0,0.0,0.0,0.0,0.00443,2.0,1.0,1.0,-1.446,2.043,1.0,0.0,0.0,0.5,0.0,0.0,0.0,0.0519
-0.4653,-0.4622,-0.4656,-1.149,1.07,2.78,0.4646,1.004,1.523,-0.7026,-0.1897,-0.305,0.7144,-0.98,0.0,-1.0,0.885,0.7627,-0.287,0.0,-0.3647,1.527,-0.313,-0.3445,1.603,-0.576,0.1229,-1.517,-0.4077,0.439,2.514,0.5215,0.2625,-0.4626,-0.4631,0.0,0.0,-0.4653,0.0,-0.4268,0.7983,1.0,0.0,0.0,0.0,-0.010895,1.0,0.5,0.5,-0.8438,1.352,0.0,1.0,0.0,0.5,0.0,0.0,0.0,-0.1262
-0.465,-0.462,-0.4653,-1.619,1.543,2.78,0.4646,0.909,2.08,-0.5337,-0.1837,0.515,0.7144,-0.98,0.0,-1.0,0.6597,0.5415,-0.1471,0.0,-0.3628,0.1583,-0.3071,-0.34,2.041,-0.5684,0.174,1.58,-0.4004,-1.519,-0.2183,2.514,-0.2607,-0.4617,-0.4631,0.0,0.0,-0.4653,0.0,-0.424,0.906,1.0,0.0,0.0,0.0,0.0023,1.0,1.0,0.5,-1.262,1.86,1.0,0.0,0.0,0.5,0.0,0.0,0.0,0.02779
-0.4648,-0.4617,-0.465,-0.4158,0.3386,2.78,-0.0765,1.191,0.5728,-0.82,-0.1797,-0.652,0.7144,-0.98,0.0,-1.0,1.062,0.92,-0.3872,0.0,-0.3608,2.29,-0.3025,-0.335,0.875,-0.551,0.2856,-2.37,-0.4001,1.583,0.4392,2.514,-1.05,-0.4614,-0.4631,0.0,0.0,-0.4653,0.0,-0.4287,0.4536,0.0,0.0,0.0,0.0,-0.01287,0.0,1.0,0.5,0.05743,0.8296,0.0,1.0,0.0,0.5,0.0,0.0,0.0,-0.1492
-0.4646,-0.4614,-0.4648,-0.9155,0.8384,2.78,-0.0765,1.136,1.044,-0.6743,-0.1743,0.953,0.7144,-0.98,0.0,-1.0,0.856,0.714,-0.267,0.0,-0.359,1.186,-0.2979,-0.329,1.384,-0.5225,0.273,1.396,-0.3987,-2.373,-1.52,-0.2183,0.8105,-0.4612,-0.4631,0.0,0.0,-0.4653,0.0,-0.4265,0.6206,0.0,0.0,0.0,0.0,0.01543,1.0,1.0,1.0,-0.3896,1.364,1.0,0.0,0.0,0.5,0.0,0.0,0.0,0.1921
-0.4646,-0.4614,-0.4648,-0.4644,0.3872,2.78,-0.0765,1.336,0.4417,-0.769,-0.1699,-0.4773,0.7144,-0.98,0.0,-1.0,0.9985,0.834,-0.3472,0.0,-0.357,0.2542,-0.2952,-0.3247,0.892,-0.516,0.281,-0.8975,-0.4016,1.399,1.583,0.4392,0.529,-0.4614,-0.4631,0.0,0.0,-0.465,0.0,-0.428,0.4546,0.0,0.0,0.0,0.0,-0.004635,0.0,0.5,0.5,0.094,0.9663,0.0,1.0,0.0,0.5,0.0,0.0,0.0,-0.05563
-0.4644,-0.4612,-0.4646,-0.8647,0.7876,2.78,-0.0765,1.355,0.788,-0.647,-0.1643,0.893,0.7144,-0.98,0.0,-1.0,0.835,0.6606,-0.2472,0.0,-0.355,0.8486,-0.2944,-0.3213,1.389,-0.505,0.2793,1.149,-0.404,-0.899,-2.373,-1.52,0.5215,-0.4614,-0.4631,0.0,0.0,-0.4648,0.0,-0.426,0.587,0.0,0.0,0.0,0.0,0.0079,1.0,0.5,1.0,-0.3015,1.355,1.0,0.0,0.0,0.5,0.0,0.0,0.0,0.09717
-0.4644,-0.4612,-0.4644,-0.604,0.521,2.78,-0.0765,1.306,0.353,-0.694,-0.1582,-0.4417,0.857,-0.98,0.0,-1.0,0.8936,0.729,-0.287,0.0,-0.353,-0.753,-0.2952,-0.3186,1.03,-0.4827,0.10693,-0.446,-0.4045,1.151,1.399,1.583,2.514,-0.4617,-0.4631,0.0,0.0,-0.4646,0.0,-0.4268,0.6577,0.0,0.0,0.0,0.0,-0.00271,0.0,0.0,1.0,-0.0519,1.088,0.0,1.0,0.0,0.5,0.0,0.0,0.0,-0.03235
-0.4644,-0.4612,-0.4646,0.3127,-0.399,2.78,-0.0765,1.657,-0.732,-0.908,-0.1547,-2.795,0.7144,-0.98,-1.0,-1.0,1.222,1.021,-0.4673,0.0,-0.351,1.695,-0.2964,-0.3152,-0.2198,-0.4382,-0.0894,-2.031,-0.4062,-0.4468,-0.8994,-2.373,2.514,-0.462,-0.4631,0.0,0.0,-0.4644,0.0,-0.4304,0.3042,0.0,0.0,0.0,0.0,-0.02646,0.0,-0.5,0.5,0.954,0.3015,0.0,2.0,0.0,0.5,0.0,0.0,0.0,-0.3196
-0.4646,-0.4614,-0.4646,1.133,-1.221,2.78,-0.9697,1.957,-1.626,-1.098,-0.1532,1.587,0.5713,-0.98,-1.0,-1.0,1.543,1.3125,-0.6274,0.0,-0.349,1.498,-0.2976,-0.311,-1.335,-0.392,-0.0974,-1.909,-0.408,-2.035,1.151,1.399,-0.2183,-0.4626,-0.4631,0.0,0.0,-0.4644,0.0,-0.4333,0.04404,0.0,0.0,0.0,0.0,-0.00512,-1.0,-0.5,0.0,1.863,-0.391,0.0,3.0,0.0,0.5,0.0,0.0,0.0,-0.06537
-0.4648,-0.4617,-0.4648,1.14,-1.2295,2.78,-1.096,1.849,-1.747,-1.118,-0.1522,0.2113,0.4285,-0.98,-1.0,-1.0,1.569,1.356,-0.6475,0.0,-0.3472,0.05692,-0.3013,-0.3074,-1.551,-0.3704,-0.1644,-0.2515,-0.41,-1.913,-0.447,-0.8994,0.4392,-0.4631,-0.4631,0.0,0.0,-0.4644,0.0,-0.4338,-0.02599,0.0,0.0,0.0,0.0,-0.0056,-1.0,-1.0,-0.5,1.726,-0.5527,0.0,4.0,0.0,0.5,0.0,0.0,0.0,-0.0753
-0.4648,-0.4617,-0.465,0.1865,-0.2761,2.78,-1.096,1.488,-0.8687,-0.9233,-0.1525,-0.4468,0.2856,-0.98,-1.0,-1.0,1.233,1.058,-0.4873,0.0,-0.3452,1.021,-0.3062,-0.3062,-0.6274,-0.3823,-0.0926,2.025,-0.4128,-0.252,-2.035,1.151,-1.52,-0.4634,-0.4631,0.0,0.0,-0.464,0.0,-0.4304,-0.149,0.0,0.0,0.0,0.0,0.08905,-1.0,-0.5,-0.5,0.7095,0.293,1.0,0.0,0.0,0.5,1.0,0.0,7.53,1.206
-0.4646,-0.4614,-0.4648,-0.7725,0.6816,2.78,-1.096,1.004,0.251,-0.6807,-0.1536,-1.394,0.2856,-0.98,0.0,-1.0,0.8555,0.732,-0.287,0.0,-0.343,1.527,-0.3105,-0.3079,0.6934,-0.425,-0.2203,2.402,-0.4163,2.03,-1.913,-0.447,1.583,-0.4634,-0.4631,0.0,0.0,-0.4639,0.0,-0.4265,-0.2301,0.0,0.0,0.0,0.0,0.0417,0.0,-0.5,-0.5,-0.1515,1.314,2.0,0.0,0.0,0.5,0.0,0.0,0.0,0.5356
-0.4646,-0.4614,-0.4646,-0.4238,0.3315,2.78,-1.096,1.091,-0.01015,-0.7505,-0.155,-0.8105,0.2856,-0.98,0.0,-1.0,0.9565,0.825,-0.3472,0.0,-0.341,-0.0775,-0.3152,-0.3105,0.3237,-0.4177,-0.03992,-0.6772,-0.4238,2.406,-0.252,-2.035,-2.373,-0.4636,-0.4631,0.0,0.0,-0.4636,0.0,-0.4275,-0.2773,0.0,0.0,0.0,0.0,-0.01498,0.0,-0.5,-0.5,0.209,0.9917,0.0,1.0,0.0,0.5,0.0,0.0,0.0,-0.1809
-0.4644,-0.4612,-0.4646,-0.6543,0.5605,2.78,-1.096,0.9434,0.369,-0.676,-0.1561,9.164,0.2856,-0.98,0.0,-1.0,0.8447,0.7295,-0.287,0.0,-0.339,-0.1015,-0.3206,-0.3154,0.6665,-0.4202,-0.1324,0.69,-0.4307,-0.678,2.03,-1.913,1.399,-0.4636,-0.4631,0.0,0.0,-0.4634,0.0,-0.4263,-0.2498,0.0,0.0,0.0,0.0,0.01201,1.0,-0.5,-0.5,-0.0717,1.157,1.0,0.0,0.0,0.5,0.0,0.0,0.0,0.1476
-0.4644,-0.4612,-0.4644,-0.499,0.4038,2.78,-1.096,0.749,0.2686,-0.697,-0.156,-0.1339,0.2856,-0.98,0.0,-1.0,0.86,0.773,-0.3071,0.0,-0.3372,-1.076,-0.3252,-0.322,0.554,-0.4197,-0.07025,-0.2257,-0.4377,0.691,2.406,-0.252,-0.8994,-0.4634,-0.463,0.0,0.0,-0.4631,0.0,-0.4268,-0.10065,0.0,0.0,0.0,0.0,-0.003016,1.0,-0.5,-0.5,0.01334,0.9326,0.0,1.0,0.0,0.5,0.0,0.0,0.0,-0.0364
-0.464,-0.461,-0.4644,-0.3577,0.2603,2.78,-1.096,0.6436,0.231,-0.7183,-0.1575,-0.001083,0.2856,-0.98,0.0,-1.0,0.882,0.8105,-0.3271,0.0,-0.3352,-0.4153,-0.3313,-0.3298,0.4385,-0.4187,-0.1469,-0.2272,-0.4453,-0.2262,-0.6787,2.03,1.151,-0.463,-0.4626,0.0,0.0,-0.463,0.0,-0.4272,-0.3374,0.0,0.0,0.0,0.0,-0.001303,0.0,-1.0,-1.0,0.02745,0.6597,0.0,2.0,0.0,0.5,0.0,0.0,0.0,-0.01582
-0.4639,-0.461,-0.464,-0.682,0.5845,2.78,-1.096,0.341,0.6094,-0.619,-0.1556,1.579,0.2856,-0.98,0.0,-1.0,0.7295,0.695,-0.2472,0.0,-0.3333,-0.117,-0.3376,-0.3367,0.853,-0.4148,-0.12134,0.914,-0.4453,-0.2275,0.691,2.406,-0.447,-0.4622,-0.4624,0.0,0.0,-0.463,0.0,-0.4255,0.157,0.0,0.0,0.0,0.0,0.008095,0.0,-0.5,-0.5,-0.3198,0.946,1.0,0.0,0.0,0.5,0.0,0.0,0.0,0.09894
-0.4639,-0.4607,-0.4639,-0.8745,0.7783,0.883,-1.096,0.4165,0.902,-0.545,-0.1545,0.611,0.2856,-0.98,0.0,-1.0,0.6396,0.591,-0.1871,0.0,-0.3313,2.39,-0.3423,-0.3406,1.115,-0.4036,0.02554,0.669,-0.4458,0.9155,-0.2262,-0.6787,-2.035,-0.4617,-0.4624,0.0,0.0,-0.463,0.0,-0.4243,0.0645,0.0,0.0,0.0,0.0,0.00957,1.0,0.0,-0.5,-0.526,1.117,2.0,0.0,0.0,0.5,0.0,0.0,0.0,0.11414
-0.4636,-0.4604,-0.4636,-1.041,0.9463,0.883,-1.096,0.3452,1.136,-0.4714,-0.1521,0.3953,0.2856,-0.98,0.0,-1.0,0.545,0.502,-0.1271,0.0,-0.3293,-0.1614,-0.3484,-0.3442,1.422,-0.4001,0.1757,0.657,-0.4443,0.6704,-0.2275,0.691,-1.913,-0.4614,-0.4622,0.0,0.0,-0.463,0.0,-0.423,0.3123,0.0,0.0,0.0,0.0,0.002508,1.0,0.5,0.0,-0.718,1.252,3.0,0.0,0.0,0.5,0.0,0.0,0.0,0.0294
-0.4634,-0.4602,-0.4634,-0.77,0.6743,0.883,-1.096,0.2856,0.888,-0.5186,-0.151,-0.10284,0.2856,-0.98,0.0,-1.0,0.598,0.566,-0.1671,0.0,-0.3274,-0.147,-0.3555,-0.3481,1.187,-0.3972,0.2314,-0.4307,-0.4448,0.6587,0.916,-0.2262,-0.252,-0.4612,-0.462,0.0,0.0,-0.463,0.0,-0.4238,0.07404,0.0,0.0,0.0,0.0,-0.002352,1.0,0.5,-0.5,-0.4524,0.9844,0.0,1.0,0.0,0.5,0.0,0.0,0.0,-0.0271
-0.4634,-0.4602,-0.4634,-0.1584,0.06256,0.883,-1.096,0.4907,0.243,-0.6616,-0.1508,-0.627,0.2856,-0.98,0.0,-1.0,0.7954,0.7427,-0.287,0.0,-0.3254,0.2241,-0.3623,-0.3516,0.5376,-0.3975,0.1421,-1.308,-0.4448,-0.4314,0.6704,-0.2275,2.03,-0.4612,-0.4617,0.0,0.0,-0.463,0.0,-0.4263,-0.07355,0.0,0.0,0.0,0.0,-0.006367,1.0,0.0,-0.5,0.1169,0.3535,0.0,2.0,0.0,0.5,0.0,1.0,-5.684,-0.07416
-0.4634,-0.4602,-0.4634,0.04623,-0.1438,0.883,-1.096,0.3381,-0.02579,-0.7075,-0.1488,-0.864,0.4285,-0.98,0.0,-1.0,0.846,0.817,-0.3271,0.0,-0.3235,-0.4153,-0.3625,-0.3557,0.3047,-0.3948,-0.001596,-0.4514,-0.447,-1.31,0.6587,0.916,2.406,-0.4612,-0.4614,0.0,0.0,-0.463,0.0,-0.427,0.1989,0.0,0.0,0.0,0.0,-0.002653,0.0,-0.5,-0.5,0.2507,0.0803,0.0,3.0,0.0,0.5,0.0,0.0,0.0,-0.03204
-0.4631,-0.46,-0.4634,-0.3262,0.2268,0.883,-1.096,0.2517,0.255,-0.608,-0.1444,10.234,0.5713,-0.98,0.0,-1.0,0.709,0.686,-0.2472,0.0,-0.3215,0.8486,-0.3625,-0.3596,0.6914,-0.3865,0.0431,0.914,-0.4468,-0.4524,-0.4316,0.6704,-0.6787,-0.4612,-0.4614,0.0,0.0,-0.463,0.0,-0.4255,0.7236,0.0,0.0,0.0,0.0,0.00835,0.0,0.0,0.0,-0.08167,0.478,1.0,0.0,0.0,0.5,0.0,0.0,0.0,0.10205
-0.4631,-0.46,-0.4631,-0.6475,0.545,0.883,-1.096,0.1982,0.4922,-0.509,-0.1389,0.967,0.7144,-0.98,0.0,-1.0,0.58,0.56,-0.1671,0.0,-0.3196,-0.147,-0.36,-0.3613,0.8867,-0.345,0.003193,0.892,-0.4453,0.9155,-1.31,0.6587,0.691,-0.461,-0.4612,0.0,0.0,-0.463,0.0,-0.4238,0.8774,1.0,0.0,0.0,0.0,0.00392,0.0,0.0,0.5,-0.4424,0.7407,2.0,0.0,0.0,0.5,0.0,0.0,0.0,0.04678
-0.463,-0.46,-0.4631,-0.2292,0.1238,0.883,-1.096,0.1324,-0.01903,-0.6035,-0.136,-0.9014,0.857,-0.98,0.0,-1.0,0.695,0.6885,-0.2472,0.0,-0.3176,-0.4387,-0.346,-0.3591,0.10406,-0.2793,0.02873,-0.8716,-0.445,0.8936,-0.4524,-0.4316,-0.2262,-0.461,-0.461,0.0,0.0,-0.463,0.0,-0.4255,0.4402,0.0,0.0,0.0,0.0,-0.00496,0.0,0.0,0.0,-0.0987,0.2578,0.0,1.0,0.0,0.5,0.0,0.0,0.0,-0.0578
-0.463,-0.4597,-0.4631,-0.3848,0.279,0.883,-1.096,-0.129,0.16,-0.553,-0.1349,5.41,0.857,-0.98,0.0,-1.0,0.6133,0.6406,-0.2072,0.0,-0.3157,-0.768,-0.337,-0.3574,0.254,-0.268,0.0495,0.446,-0.4446,-0.873,0.916,-1.31,-0.2275,-0.4612,-0.4607,0.0,0.0,-0.463,0.0,-0.4248,0.1302,0.0,0.0,0.0,0.0,0.001026,1.0,0.5,0.0,-0.263,0.3975,1.0,0.0,0.0,0.5,0.0,0.0,0.0,0.012245
-0.4626,-0.4595,-0.463,-0.7783,0.6733,0.883,-1.096,-0.155,0.5894,-0.4304,-0.1322,2.314,0.857,-0.98,0.0,-1.0,0.4617,0.4866,-0.10706,0.0,-0.3137,0.1404,-0.3281,-0.354,0.64,-0.2432,-0.004787,1.103,-0.4421,0.4468,0.894,-0.4524,0.9155,-0.4612,-0.4607,0.0,0.0,-0.4626,0.0,-0.4226,0.5103,0.0,0.0,0.0,0.0,0.011795,2.0,0.5,0.5,-0.628,0.805,2.0,0.0,0.0,0.5,0.0,0.0,0.0,0.139
-0.4626,-0.4595,-0.4626,-0.531,0.4253,0.883,-1.096,-0.1912,0.3286,-0.478,-0.1305,-0.3193,0.857,-0.98,0.0,-1.0,0.516,0.5483,-0.1471,0.0,-0.3118,-0.7793,-0.3213,-0.3496,0.3599,-0.2295,-0.0415,-0.4282,-0.4424,1.1045,-0.873,0.916,0.6704,-0.461,-0.4607,0.0,0.0,-0.4624,0.0,-0.4236,0.275,0.0,0.0,0.0,0.0,-0.001349,1.0,0.0,0.0,-0.3762,0.572,0.0,1.0,0.0,0.5,0.0,0.0,0.0,-0.01546
-0.4624,-0.4592,-0.4626,-0.4773,0.372,0.883,-1.096,-0.1043,0.2683,-0.477,-0.1287,-0.04648,0.857,-0.98,0.0,-1.0,0.521,0.541,-0.1471,0.0,-0.3098,0.1583,-0.3157,-0.3447,0.2783,-0.214,-0.0862,0.0,-0.4497,-0.429,0.447,0.894,0.6587,-0.4604,-0.4607,0.0,0.0,-0.4622,0.0,-0.4236,0.334,0.0,0.0,0.0,0.0,0.0,0.0,-0.5,0.0,-0.3367,0.5063,0.0,0.0,0.0,0.5,0.0,0.0,0.0,0.0
-0.4624,-0.4592,-0.4626,-0.1637,0.05737,0.883,0.1283,-0.0111,-0.0858,-0.5483,-0.1271,-1.076,0.7144,-0.98,-1.0,-1.0,0.615,0.626,-0.2072,0.0,-0.3079,-0.1322,-0.312,-0.3403,-0.0683,-0.2064,-0.05588,-0.65,-0.4626,0.0,1.1045,-0.873,-0.4316,-0.4604,-0.4607,0.0,0.0,-0.462,0.0,-0.4246,0.2183,0.0,0.0,0.0,0.0,-0.00967,0.0,-0.5,0.0,-0.0413,0.1854,0.0,1.0,0.0,0.5,0.0,0.0,0.0,-0.11206
-0.4624,-0.4595,-0.4626,0.3196,-0.4265,0.883,0.1283,0.0809,-0.5796,-0.6675,-0.1273,14.13,0.5713,-0.98,-1.0,-1.0,0.775,0.7793,-0.3071,0.0,-0.306,-0.0936,-0.3103,-0.3364,-0.602,-0.202,0.0367,-1.103,-0.4663,-0.651,-0.4292,0.447,-1.31,-0.4607,-0.4607,0.0,0.0,-0.462,0.0,-0.4265,-0.2162,0.0,0.0,0.0,0.0,-0.003113,-1.0,-0.5,-0.5,0.4546,-0.265,0.0,2.0,0.0,0.5,0.0,0.0,0.0,-0.0367
-0.4626,-0.4595,-0.463,0.684,-0.791,-0.2306,-0.10706,-0.08417,-0.9224,-0.7617,-0.129,0.8486,0.4285,-0.98,-1.0,-1.0,0.892,0.925,-0.3872,0.0,-0.304,0.2747,-0.3105,-0.335,-0.9644,-0.2117,0.0671,-0.9087,-0.4663,-1.1045,0.0,1.1045,-0.4524,-0.461,-0.4607,0.0,0.0,-0.462,0.0,-0.4282,-0.5386,0.0,0.0,0.0,0.0,-0.00203,-2.0,-0.5,-1.0,0.8247,-0.6084,0.0,3.0,0.0,0.5,0.0,0.0,0.0,-0.02466
-0.463,-0.4597,-0.463,1.033,-1.139,-0.2306,-0.5723,-0.03418,-1.219,-0.856,-0.1322,0.5044,0.2856,-0.98,-1.0,-1.0,1.029,1.061,-0.4673,0.0,-0.302,0.3176,-0.3135,-0.3347,-1.3,-0.2274,-0.001596,-0.931,-0.4624,-0.91,-0.6514,-0.4292,0.9155,-0.4614,-0.4607,0.0,0.0,-0.462,0.0,-0.4297,-0.8477,0.0,0.0,0.0,0.0,-0.00369,-2.0,-1.0,-1.5,1.192,-0.9214,0.0,4.0,0.0,0.5,0.0,0.0,0.0,-0.04596
-0.4631,-0.46,-0.4634,1.4795,-1.583,-0.2306,-1.168,0.1309,-1.605,-0.974,-0.136,0.4922,0.1428,-0.98,-1.0,-1.0,1.219,1.235,-0.5674,0.0,-0.3,1.086,-0.3188,-0.336,-1.589,-0.2751,-0.083,-1.193,-0.4536,-0.9326,-1.1045,0.0,0.894,-0.4622,-0.461,0.0,0.0,-0.4622,0.0,-0.4316,-0.9297,0.0,0.0,0.0,0.0,-0.01323,-2.0,-1.5,-1.5,1.621,-1.365,0.0,5.0,0.0,0.5,0.0,0.0,0.0,-0.169
-0.4634,-0.4604,-0.4636,1.798,-1.898,-0.2306,-1.661,0.2573,-1.905,-1.067,-0.1393,0.3398,0.0,-0.98,-1.0,-1.0,1.377,1.382,-0.6475,0.0,-0.298,1.519,-0.3196,-0.337,-1.464,-0.388,-0.0511,-0.9863,-0.4434,-1.195,-0.91,-0.6514,-0.873,-0.463,-0.461,0.0,0.0,-0.4624,0.0,-0.433,-0.876,0.0,0.0,0.0,0.0,-0.03915,-2.0,-1.5,-1.5,1.963,-1.644,0.0,5.0,0.0,0.5,0.0,0.0,0.0,-0.5166
-0.4636,-0.4604,-0.4639,0.9634,-1.062,-0.2306,-1.661,0.2651,-1.197,-0.9175,-0.141,-0.2957,-0.1428,-0.98,-1.0,-1.0,1.142,1.135,-0.5273,0.0,-0.2961,0.0,-0.3162,-0.3367,-0.6084,-0.427,-0.1149,1.52,-0.4397,-0.988,-0.933,-1.1045,0.447,-0.4634,-0.4612,0.0,0.0,-0.4624,0.0,-0.4307,-0.485,0.0,0.0,0.0,0.0,0.04538,-1.0,-1.5,-1.0,1.17,-0.797,1.0,0.0,0.0,0.5,0.0,0.0,0.0,0.6147
-0.4639,-0.4607,-0.4639,0.3599,-0.4575,0.02155,-1.661,0.1295,-0.5986,-0.792,-0.1425,-0.4524,-0.2856,-0.98,-1.0,-1.0,0.9487,0.9536,-0.4272,0.0,-0.2942,-0.04416,-0.311,-0.3357,-0.001472,-0.438,-0.2203,1.217,-0.4387,1.521,-1.196,-0.91,1.1045,-0.4639,-0.4612,0.0,0.0,-0.4626,0.0,-0.4287,-0.437,0.0,0.0,0.0,0.0,0.002653,0.0,-1.5,-1.0,0.5894,-0.1935,2.0,0.0,0.0,0.5,1.0,0.0,6.0,0.03452
-0.4639,-0.4607,-0.464,0.633,-0.731,0.02155,-1.661,0.1393,-0.8027,-0.8623,-0.1454,0.5405,-0.4285,-0.98,-1.0,-1.0,1.051,1.059,-0.4873,0.0,-0.2922,-0.711,-0.3032,-0.3342,-0.2888,-0.4458,-0.2139,-0.707,-0.4375,1.219,-0.9883,-0.933,-0.4292,-0.464,-0.4612,0.0,0.0,-0.4626,0.0,-0.43,-0.732,0.0,0.0,0.0,0.0,-0.000519,0.0,-1.5,-1.5,0.848,-0.4707,0.0,1.0,0.0,0.5,0.0,0.0,0.0,-0.006542
-0.464,-0.461,-0.464,0.575,-0.674,0.02155,-1.661,0.1072,-0.714,-0.859,-0.1476,-0.004986,-0.5713,-0.98,-1.0,-1.0,1.043,1.056,-0.4873,0.0,-0.2903,-0.018,-0.2954,-0.3323,-0.2285,-0.4568,-0.2411,0.0,-0.438,-0.7085,1.522,-1.196,0.0,-0.4644,-0.4612,0.0,0.0,-0.463,0.0,-0.43,-0.6084,0.0,0.0,0.0,0.0,0.0,0.0,-1.5,-1.5,0.7695,-0.4385,0.0,0.0,0.0,0.5,0.0,0.0,0.0,0.0
-0.464,-0.461,-0.4644,0.838,-0.936,0.02155,-1.661,0.2803,-0.9136,-0.9287,-0.1506,0.4614,-0.7144,-0.98,-1.0,-1.0,1.16,1.152,-0.5474,0.0,-0.2883,0.3625,-0.2888,-0.3298,-0.5176,-0.4646,-0.2203,-0.7207,-0.4373,0.0,1.219,-0.9883,-0.651,-0.4644,-0.4612,0.0,0.0,-0.4631,0.0,-0.431,-0.816,0.0,0.0,0.0,0.0,-0.00429,0.0,-1.5,-2.0,1.005,-0.7183,0.0,1.0,0.0,0.5,0.0,0.0,0.0,-0.0551
-0.4644,-0.4612,-0.4644,0.6553,-0.754,0.02155,-1.661,0.2651,-0.6465,-0.901,-0.1548,-0.2175,-0.857,-0.98,-1.0,-1.0,1.116,1.109,-0.5273,0.0,-0.2864,0.351,-0.2832,-0.3267,-0.2546,-0.4922,-0.1676,0.2449,-0.4355,-0.7217,-0.7085,1.522,-1.1045,-0.4644,-0.4612,0.0,0.0,-0.4634,0.0,-0.4307,-1.072,0.0,1.0,0.0,0.0,0.00184,0.0,-1.0,-2.0,0.816,-0.551,1.0,0.0,0.0,0.5,0.0,0.0,0.0,0.0241
-0.4644,-0.4612,-0.4646,0.1879,-0.2874,0.02155,-1.661,0.302,-0.0881,-0.7993,-0.1576,-0.917,-1.0,-0.98,-1.0,-1.0,0.971,0.952,-0.4473,0.0,-0.2844,0.3066,-0.2805,-0.3232,0.2264,-0.498,-0.12134,0.973,-0.4353,0.2454,0.0,1.219,-0.91,-0.464,-0.4612,0.0,0.0,-0.4634,0.0,-0.429,-0.7563,0.0,0.0,0.0,0.0,0.01148,0.0,-0.5,-1.5,0.4067,-0.04205,2.0,0.0,0.0,0.5,0.0,0.0,0.0,0.1495
-0.4644,-0.4612,-0.4644,-0.3086,0.2078,0.02155,-1.661,0.2607,0.548,-0.6733,-0.1593,-15.28,-1.0,-0.98,0.0,-1.0,0.795,0.775,-0.3472,0.0,-0.2825,-0.0775,-0.2815,-0.32,0.7896,-0.4985,-0.06226,1.186,-0.436,0.975,-0.722,-0.7085,-0.9326,-0.4636,-0.4612,0.0,0.0,-0.4634,0.0,-0.427,-0.485,0.0,0.0,0.0,0.0,0.009315,1.0,0.0,-1.0,-0.05856,0.4653,3.0,0.0,0.0,0.5,1.0,0.0,6.535,0.11816
-0.464,-0.461,-0.4644,-0.7295,0.629,0.4377,-1.661,0.2517,1.122,-0.548,-0.1594,1.173,-0.857,-0.98,0.0,-1.0,0.6323,0.6064,-0.2472,0.0,-0.2803,0.8486,-0.2861,-0.317,1.385,-0.5044,0.02715,1.149,-0.4377,1.1875,0.2454,0.0,-1.195,-0.4634,-0.4612,0.0,0.0,-0.4634,0.0,-0.425,-0.1528,0.0,0.0,0.0,0.0,0.01686,2.0,0.5,-0.5,-0.4753,0.873,4.0,0.0,0.0,0.5,0.0,0.0,0.0,0.2074
-0.464,-0.461,-0.464,-0.3875,0.2861,0.4377,-1.661,0.263,0.7876,-0.619,-0.159,-0.1866,-0.7144,-0.98,0.0,-1.0,0.724,0.7007,-0.3071,0.0,-0.2783,-0.0936,-0.2961,-0.3157,0.9077,-0.4807,0.1165,-0.669,-0.4382,1.151,0.975,-0.722,-0.9883,-0.4631,-0.4612,0.0,0.0,-0.4634,0.0,-0.4263,-0.07355,0.0,0.0,0.0,0.0,-0.01432,2.0,0.5,-0.5,-0.1516,0.5254,0.0,1.0,0.0,0.5,0.0,0.0,0.0,-0.1709
-0.4639,-0.4607,-0.464,-0.6177,0.5176,0.4377,-1.661,0.192,1.0625,-0.5435,-0.1573,0.4858,-0.5713,-0.98,0.0,-1.0,0.6226,0.605,-0.2472,0.0,-0.2764,-0.7607,-0.3098,-0.315,1.234,-0.4795,0.04788,0.681,-0.439,-0.6704,1.188,0.2454,1.522,-0.4626,-0.4612,0.0,0.0,-0.4634,0.0,-0.425,0.2202,0.0,0.0,0.0,0.0,0.001488,2.0,0.5,0.0,-0.392,0.7363,1.0,0.0,0.0,0.5,0.0,0.0,0.0,0.01807
-0.4639,-0.4607,-0.4639,-0.2842,0.1841,0.4377,-1.661,0.2024,0.663,-0.6157,-0.1554,-0.2673,-0.4285,-0.98,0.0,-1.0,0.7153,0.7,-0.3071,0.0,-0.2744,-0.0936,-0.3289,-0.316,0.903,-0.48,-0.009575,-0.669,-0.4434,0.6826,1.151,0.975,1.219,-0.4624,-0.4612,0.0,0.0,-0.4636,0.0,-0.4263,0.2688,0.0,0.0,0.0,0.0,-0.0004325,1.0,0.0,0.0,-0.0883,0.3853,0.0,1.0,0.0,0.5,0.0,0.0,0.0,-0.00516
-0.4639,-0.4607,-0.4639,0.2216,-0.323,0.4377,-1.661,0.2412,0.04602,-0.737,-0.1533,-0.8193,-0.2856,-0.98,0.0,-1.0,0.88,0.8657,-0.4072,0.0,-0.2725,0.623,-0.351,-0.318,0.2966,-0.4714,0.04788,-1.136,-0.4478,-0.6704,-0.6704,1.188,-0.7085,-0.4622,-0.4612,0.0,0.0,-0.4639,0.0,-0.4282,0.2688,0.0,0.0,0.0,0.0,-0.00948,0.0,0.0,0.0,0.421,-0.09705,0.0,2.0,0.0,0.5,0.0,0.0,0.0,-0.11523
-0.4639,-0.4607,-0.464,0.2021,-0.306,0.4377,-1.661,0.08466,-0.04855,-0.735,-0.1505,-0.892,-0.1428,-0.98,0.0,-1.0,0.8667,0.874,-0.4072,0.0,-0.2705,-0.3906,-0.3562,-0.3223,0.06305,-0.4297,0.0543,0.0,-0.4526,-1.138,0.6826,1.151,0.0,-0.4622,-0.4612,0.0,0.0,-0.4639,0.0,-0.4282,0.4846,0.0,0.0,0.0,0.0,0.0,-1.0,0.0,0.0,0.3328,-0.1537,0.0,0.0,0.0,0.5,0.0,0.0,0.0,0.0
-0.4639,-0.4607,-0.464,0.1852,-0.2898,0.4377,-1.661,-0.0406,-0.09546,-0.733,-0.1489,-6.477,-0.1428,-0.98,-1.0,-1.0,0.8555,0.8804,-0.4072,0.0,-0.2686,-0.7285,-0.351,-0.3281,-0.1713,-0.387,0.1086,0.0,-0.4565,0.0,-0.6704,-0.6704,-0.722,-0.4622,-0.4614,0.0,0.0,-0.464,0.0,-0.4282,0.2474,0.0,0.0,0.0,0.0,0.0,-1.0,0.0,-0.5,0.2583,-0.1996,0.0,0.0,0.0,0.5,0.0,0.0,0.0,0.0
-0.4639,-0.4607,-0.464,0.3684,-0.4736,0.4377,-1.661,-0.11035,-0.3066,-0.7803,-0.1488,6.086,-0.1428,-0.98,-1.0,-1.0,0.916,0.9536,-0.4473,0.0,-0.2666,-1.0625,-0.3464,-0.3352,-0.3896,-0.3865,0.10376,-0.4685,-0.4578,0.0,-1.138,0.6826,0.2454,-0.4626,-0.4614,0.0,0.0,-0.464,0.0,-0.429,-0.1313,0.0,0.0,0.0,0.0,-0.001015,-2.0,-0.5,-1.0,0.426,-0.392,0.0,1.0,0.0,0.5,0.0,0.0,0.0,-0.01271
-0.464,-0.461,-0.464,0.539,-0.6445,0.4377,-1.661,-0.0855,-0.5254,-0.8267,-0.1483,1.091,-0.1428,-0.98,-1.0,-1.0,0.984,1.0205,-0.4873,0.0,-0.2646,-0.711,-0.3425,-0.3435,-0.6055,-0.3865,0.0463,-0.4744,-0.4578,-0.4692,0.0,-0.6704,0.975,-0.463,-0.4614,0.0,0.0,-0.464,0.0,-0.4297,-0.07355,0.0,0.0,0.0,0.0,-0.000346,-2.0,-1.0,-1.0,0.6177,-0.5337,0.0,2.0,0.0,0.5,0.0,1.0,-1.887,-0.00439
-0.4644,-0.4612,-0.4644,1.13,-1.235,0.4377,-1.661,0.05963,-1.139,-0.971,-0.149,1.566,-0.1428,-0.98,-1.0,-1.0,1.21,1.235,-0.6074,0.0,-0.2627,0.398,-0.3403,-0.3533,-1.184,-0.4006,-0.0367,-1.441,-0.4553,-0.475,0.0,-1.138,1.188,-0.4634,-0.4617,0.0,0.0,-0.464,0.0,-0.432,-0.3792,0.0,0.0,0.0,0.0,-0.01616,-2.0,-1.5,-1.0,1.234,-1.072,0.0,3.0,0.0,0.5,0.0,0.0,0.0,-0.2076
-0.4644,-0.4612,-0.4646,0.8076,-0.9126,0.4377,-1.661,-0.06696,-0.911,-0.918,-0.1487,-0.10504,-0.1428,-0.98,-1.0,-1.0,1.119,1.159,-0.5674,0.0,-0.2607,-0.3372,-0.3403,-0.3618,-0.7583,-0.4404,-0.1373,0.4998,-0.4553,-1.443,-0.4692,0.0,1.151,-0.4639,-0.4617,0.0,0.0,-0.464,0.0,-0.4312,-0.1257,0.0,0.0,0.0,0.0,0.01477,-1.0,-1.5,-0.5,0.9336,-0.74,1.0,0.0,0.0,0.5,0.0,0.0,0.0,0.1974
-0.4646,-0.4614,-0.4646,0.4197,-0.524,0.4377,0.03105,-0.1052,-0.5894,-0.84,-0.148,-0.2888,-0.1428,-0.98,-1.0,-1.0,1.001,1.042,-0.5073,0.0,-0.2588,0.3398,-0.3416,-0.3633,-0.407,-0.4443,-0.1149,0.7397,-0.4587,0.5005,-0.4753,0.0,-0.6704,-0.4639,-0.462,0.0,0.0,-0.464,0.0,-0.43,-0.02377,0.0,0.0,0.0,0.0,0.00872,0.0,-1.0,-0.5,0.543,-0.3706,2.0,0.0,0.0,0.5,0.0,0.0,0.0,0.115
-0.4646,-0.4614,-0.4648,0.696,-0.8003,0.4377,0.03105,-0.1328,-0.874,-0.911,-0.1488,0.715,-0.1428,-0.98,-1.0,-1.0,1.1045,1.153,-0.5674,0.0,-0.2568,-0.693,-0.3433,-0.3635,-0.6616,-0.4585,-0.1788,-0.725,-0.458,0.7407,-1.444,-0.4692,0.6826,-0.464,-0.462,0.0,0.0,-0.464,0.0,-0.431,-0.3792,0.0,0.0,0.0,0.0,-0.01545,0.0,-1.5,-1.0,0.79,-0.666,0.0,1.0,0.0,0.5,0.0,0.0,0.0,-0.1997
-0.4648,-0.4617,-0.4648,0.527,-0.6313,0.4377,0.03105,-0.1781,-0.688,-0.8833,-0.1505,-0.1243,-0.2856,-0.98,-1.0,-1.0,1.06,1.113,-0.5474,0.0,-0.255,0.3625,-0.3447,-0.3635,-0.4783,-0.472,-0.1565,0.2466,-0.457,-0.7266,0.5005,-0.4753,-0.6704,-0.4644,-0.4622,0.0,0.0,-0.464,0.0,-0.4307,-0.6367,0.0,0.0,0.0,0.0,0.003344,1.0,-1.0,-1.0,0.577,-0.551,1.0,0.0,0.0,0.5,0.0,0.0,0.0,0.0441
-0.4648,-0.4617,-0.465,0.6904,-0.796,0.4377,0.03105,-0.3193,-0.7803,-0.929,-0.1537,0.2876,-0.4285,-0.98,-1.0,-1.0,1.119,1.195,-0.5874,0.0,-0.253,-1.046,-0.3457,-0.363,-0.5835,-0.4934,-0.09576,-0.4897,-0.4553,0.247,0.741,-1.444,-1.138,-0.4646,-0.4624,0.0,0.0,-0.4644,0.0,-0.4314,-1.113,0.0,1.0,0.0,0.0,-0.0001614,1.0,-1.0,-1.5,0.726,-0.7246,0.0,1.0,-0.5,0.5,0.0,0.0,0.0,-0.002115
-0.465,-0.462,-0.4653,0.735,-0.8403,0.4377,0.03105,-0.241,-0.7773,-0.95,-0.1564,0.1217,-0.5713,-0.98,-1.0,-1.0,1.157,1.224,-0.6074,0.0,-0.251,0.7583,-0.34,-0.3606,-0.4329,-0.541,-0.11017,-0.2482,-0.4536,-0.4907,-0.7266,0.5005,0.0,-0.4648,-0.4624,0.0,0.0,-0.4644,0.0,-0.4316,-1.046,0.0,1.0,0.0,0.0,-0.0026,0.0,-1.0,-1.5,0.746,-0.7935,0.0,2.0,-0.5,0.5,0.0,0.0,0.0,-0.03452
-0.465,-0.462,-0.4653,0.0457,-0.151,0.4377,0.03105,-0.1819,-0.008064,-0.797,-0.1584,-1.051,-0.5713,-0.98,0.0,-1.0,0.9346,0.9834,-0.4873,0.0,-0.249,1.368,-0.3352,-0.3584,0.2637,-0.544,-0.1261,1.499,-0.454,-0.2487,0.2471,0.741,0.0,-0.4646,-0.4626,0.0,0.0,-0.4644,0.0,-0.4292,-0.787,0.0,0.0,0.0,0.0,0.02454,0.0,-0.5,-1.5,0.1125,-0.0733,1.0,0.0,-0.5,0.5,0.0,0.0,0.0,0.328
-0.465,-0.462,-0.465,-0.1532,0.04715,0.4377,0.03105,-0.2054,0.275,-0.743,-0.1594,6.582,-0.5713,-0.98,0.0,-1.0,0.858,0.9062,-0.4473,0.0,-0.2471,-0.03555,-0.3313,-0.3567,0.4836,-0.5425,-0.1006,0.4805,-0.4546,1.502,-0.4907,-0.7266,-0.4692,-0.4644,-0.4626,0.0,0.0,-0.4644,0.0,-0.4285,-0.5015,0.0,0.0,0.0,0.0,0.002169,1.0,0.0,-1.0,-0.11694,0.084,2.0,0.0,-0.5,0.5,0.0,0.0,0.0,0.02786
-0.465,-0.462,-0.4653,0.47,-0.5776,0.4377,0.03105,-0.1328,-0.3403,-0.888,-0.1605,-1.921,-0.7144,-0.98,-1.0,-1.0,1.07,1.118,-0.5674,0.0,-0.2451,0.3743,-0.327,-0.355,-0.1437,-0.5522,-0.06866,-1.423,-0.4536,0.4812,-0.2487,0.2471,-0.4753,-0.4646,-0.4626,0.0,0.0,-0.4644,0.0,-0.431,-0.5493,0.0,0.0,0.0,0.0,-0.00384,0.0,0.0,-1.0,0.5645,-0.4526,0.0,1.0,-0.5,0.5,0.0,0.0,0.0,-0.0487
-0.4653,-0.4622,-0.4656,1.082,-1.19,0.4377,-0.2279,0.04865,-0.9136,-1.034,-0.1628,2.354,-0.857,-0.98,-1.0,-1.0,1.308,1.339,-0.6875,0.0,-0.2432,0.4473,-0.3228,-0.3525,-0.726,-0.571,0.02075,-1.4795,-0.4507,-1.426,1.502,-0.4907,-1.444,-0.4648,-0.463,0.0,0.0,-0.4646,0.0,-0.433,-0.787,0.0,0.0,0.0,0.0,-0.03772,0.0,0.0,-1.0,1.242,-0.97,0.0,2.0,-0.5,0.5,0.0,1.0,-6.516,-0.4973
-0.4656,-0.4624,-0.4656,0.7593,-0.8667,-0.3635,-0.2279,0.1558,-0.59,-0.979,-0.1648,-0.29,-0.857,-0.98,-1.0,-1.0,1.229,1.241,-0.6475,0.0,-0.2412,0.7876,-0.3225,-0.35,-0.467,-0.576,-0.01756,0.513,-0.453,-1.481,0.4814,-0.2487,0.5005,-0.4648,-0.463,0.0,0.0,-0.4648,0.0,-0.4324,-0.657,0.0,0.0,0.0,0.0,0.005283,1.0,0.0,-0.5,0.9277,-0.651,1.0,0.0,-0.5,0.5,0.0,0.0,0.0,0.0725
-0.4656,-0.4624,-0.4656,0.1608,-0.267,-0.3635,-0.2279,0.2148,0.0259,-0.8496,-0.1653,-1.146,-0.7144,-0.98,0.0,-1.0,1.037,1.034,-0.5474,0.0,-0.2393,0.716,-0.3245,-0.348,0.11646,-0.5776,-0.07184,1.266,-0.4556,0.514,-1.426,1.502,0.741,-0.4648,-0.463,0.0,0.0,-0.4648,0.0,-0.4304,-0.3013,0.0,0.0,0.0,0.0,0.00995,1.0,0.0,0.0,0.378,-0.02481,2.0,0.0,-0.5,0.5,0.0,0.0,0.0,0.1348
-0.4656,-0.4624,-0.4656,-0.0537,-0.05225,-0.2161,-0.2279,0.2502,0.2646,-0.7954,-0.1649,3.326,-0.5713,-0.98,0.0,-1.0,0.962,0.95,-0.5073,0.0,-0.2373,-0.358,-0.3293,-0.3462,0.3125,-0.572,-0.02715,0.4897,-0.4622,1.269,-1.482,0.4814,-0.7266,-0.4646,-0.463,0.0,0.0,-0.465,0.0,-0.4294,-0.1191,0.0,0.0,0.0,0.0,0.005825,1.0,0.5,0.5,0.1181,0.1329,3.0,0.0,-0.5,0.5,1.0,0.0,4.73,0.0763
-0.4656,-0.4624,-0.4656,0.05414,-0.1606,-0.2161,-0.2279,0.1351,0.1162,-0.815,-0.1633,-0.3838,-0.4285,-0.98,0.0,-1.0,0.9824,0.988,-0.5273,0.0,-0.2354,-0.702,-0.3354,-0.3447,0.1965,-0.5713,-0.0383,-0.2418,-0.4663,0.4907,0.514,-1.426,0.2471,-0.4648,-0.463,0.0,0.0,-0.465,0.0,-0.43,0.1302,0.0,0.0,0.0,0.0,-0.0001845,1.0,0.0,0.5,0.2118,0.01407,0.0,1.0,-0.5,0.5,0.0,0.0,0.0,-0.002386
-0.4656,-0.4624,-0.4656,0.0516,-0.1581,-0.2161,-0.2279,0.1351,0.0996,-0.8096,-0.1621,0.02037,-0.2856,-0.98,0.0,-1.0,0.974,0.9795,-0.5273,0.0,-0.2333,-0.351,-0.3396,-0.3438,0.1718,-0.5674,-0.004787,0.0,-0.4663,-0.2422,1.269,-1.482,-0.4907,-0.4648,-0.463,0.0,0.0,-0.465,0.0,-0.43,0.03345,0.0,0.0,0.0,0.0,0.0,1.0,0.0,0.0,0.1727,-0.02235,0.0,0.0,-0.5,0.5,0.0,0.0,0.0,0.0
-0.4656,-0.4624,-0.4658,0.2537,-0.3606,-0.2161,-0.2279,0.1968,-0.1057,-0.855,-0.162,-1.325,-0.2856,-0.98,-1.0,-1.0,1.044,1.043,-0.5674,0.0,-0.2313,0.73,-0.3452,-0.3438,-0.05252,-0.568,0.01596,-0.4866,-0.4663,0.0,0.4907,0.514,-0.2487,-0.4648,-0.463,0.0,0.0,-0.4653,0.0,-0.4307,-0.2382,0.0,0.0,0.0,0.0,-0.00693,0.0,0.0,-0.5,0.3586,-0.2338,0.0,1.0,-0.5,0.5,0.0,0.0,0.0,-0.0902
-0.4656,-0.4624,-0.4658,0.1294,-0.2362,-0.2161,-0.2279,0.1166,0.001126,-0.824,-0.161,-2.262,-0.1428,-0.98,0.0,-1.0,0.994,1.003,-0.5474,0.0,-0.2294,-1.051,-0.3516,-0.346,0.07733,-0.571,-0.0766,0.2466,-0.4663,-0.4875,-0.2422,1.269,1.502,-0.4646,-0.463,0.0,0.0,-0.4653,0.0,-0.4302,-0.0157,0.0,0.0,0.0,0.0,0.0002248,0.0,0.0,0.0,0.2374,-0.1111,1.0,0.0,-0.5,0.5,0.0,0.0,0.0,0.002966
-0.4656,-0.4624,-0.4658,0.0182,-0.12494,-0.2161,-0.2279,0.0375,0.1079,-0.7944,-0.1602,2.172,0.0,-0.98,0.0,-1.0,0.946,0.964,-0.5273,0.0,-0.2274,-0.351,-0.359,-0.349,0.2002,-0.5723,-0.11334,0.2449,-0.4663,0.247,0.0,0.4907,0.4814,-0.4644,-0.463,0.0,0.0,-0.4653,0.0,-0.43,-0.0157,0.0,0.0,0.0,0.0,0.001736,0.0,0.0,0.0,0.1167,-0.014725,2.0,0.0,-0.5,0.5,0.0,0.0,0.0,0.02274
-0.4656,-0.4624,-0.4658,0.12054,-0.2273,-0.2161,-0.2279,0.1493,-0.02357,-0.815,-0.159,-0.756,0.1428,-0.98,0.0,-1.0,0.9824,0.986,-0.5474,0.0,-0.2255,0.3625,-0.3625,-0.3533,0.07477,-0.5703,-0.02394,-0.2433,-0.4663,0.2454,-0.4875,-0.2422,-1.426,-0.4644,-0.463,0.0,0.0,-0.4653,0.0,-0.4302,0.04535,0.0,0.0,0.0,0.0,-0.001159,0.0,0.0,0.0,0.2167,-0.1152,0.0,1.0,-0.5,0.5,0.0,0.0,0.0,-0.01508
-0.4656,-0.4624,-0.4656,-0.1885,0.0822,-0.2161,-0.2279,0.075,0.271,-0.734,-0.1571,10.02,0.2856,-0.98,0.0,-1.0,0.8643,0.8735,-0.4873,0.0,-0.2235,0.3286,-0.3625,-0.3582,0.3862,-0.565,0.0734,0.735,-0.4663,-0.2438,0.2471,0.0,-1.482,-0.4644,-0.463,0.0,0.0,-0.4653,0.0,-0.429,0.2644,0.0,0.0,0.0,0.0,0.001297,1.0,0.5,0.5,-0.12164,0.15,1.0,0.0,-0.5,0.5,0.0,0.0,0.0,0.017
-0.4656,-0.4624,-0.4656,-0.1682,0.06137,-0.2161,-0.2279,-0.1498,0.271,-0.7295,-0.1565,0.1263,0.2856,-0.98,0.0,-1.0,0.843,0.883,-0.4873,0.0,-0.2216,-1.058,-0.3625,-0.3613,0.383,-0.5645,0.05746,0.0,-0.4663,0.736,0.2454,-0.4875,0.514,-0.4644,-0.4631,0.0,0.0,-0.4653,0.0,-0.429,-0.07355,0.0,0.0,0.0,0.0,0.0,1.0,0.0,0.0,-0.1262,0.10364,0.0,0.0,-0.5,0.5,0.0,0.0,0.0,0.0
-0.4653,-0.4622,-0.4656,-0.5327,0.4272,-0.2161,-0.2279,-0.1658,0.712,-0.624,-0.1555,1.612,0.2856,-0.98,0.0,-1.0,0.7007,0.7373,-0.4072,0.0,-0.2196,0.2852,-0.3625,-0.3655,0.763,-0.5513,-0.009575,0.961,-0.4663,0.0,-0.2438,0.2471,1.269,-0.464,-0.4631,0.0,0.0,-0.4653,0.0,-0.4275,0.05234,0.0,0.0,0.0,0.0,0.01504,1.0,0.0,0.0,-0.506,0.4382,1.0,0.0,-0.5,0.5,0.0,0.0,0.0,0.1932
-0.465,-0.462,-0.4653,-1.193,1.092,0.0718,-0.2279,-0.1957,1.485,-0.4167,-0.1516,1.236,0.4285,-0.98,0.0,-1.0,0.4426,0.4724,-0.2472,0.0,-0.2177,0.5264,-0.3562,-0.3667,1.201,-0.4739,-0.03033,1.874,-0.4631,0.9624,0.7363,0.2454,0.4907,-0.4636,-0.4631,0.0,0.0,-0.465,0.0,-0.4243,0.8774,1.0,0.0,0.0,0.0,0.09296,1.0,0.0,0.5,-1.129,1.114,2.0,0.0,-0.5,0.5,1.0,0.0,7.53,1.164
-0.4648,-0.4617,-0.465,-1.076,0.975,0.0718,-0.2279,-0.2255,1.293,-0.4128,-0.1464,-0.011185,0.5713,-0.98,0.0,-1.0,0.4363,0.47,-0.2472,0.0,-0.2157,0.2048,-0.342,-0.3633,0.9375,-0.4294,0.006386,0.0,-0.4563,1.877,0.0,-0.2438,-0.2422,-0.4631,-0.4631,0.0,0.0,-0.4648,0.0,-0.4243,1.496,1.0,0.0,0.0,0.0,0.0,1.0,0.0,0.5,-1.04,0.973,0.0,0.0,-0.5,0.5,0.0,0.0,0.0,0.0
-0.4646,-0.4614,-0.4648,-0.971,0.8696,0.0718,-0.2279,-0.315,1.122,-0.409,-0.1415,-0.01377,0.7144,-0.98,0.0,-1.0,0.4255,0.4714,-0.2472,0.0,-0.2137,-0.4387,-0.3257,-0.3545,0.61,-0.372,0.02873,0.0,-0.4517,0.0,0.963,0.7363,0.0,-0.4626,-0.463,0.0,0.0,-0.4648,0.0,-0.424,1.455,1.0,0.0,0.0,0.0,0.0,0.0,0.0,0.0,-0.996,0.807,0.0,0.0,-0.5,0.5,0.0,0.0,0.0,0.0
-0.4644,-0.4612,-0.4646,-0.6104,0.508,0.0718,-0.2279,-0.3745,0.688,-0.4817,-0.1384,-0.2798,0.7144,-0.98,0.0,-1.0,0.5083,0.566,-0.3071,0.0,-0.2118,-0.4214,-0.3145,-0.3467,0.2218,-0.36,0.083,-0.669,-0.4502,0.0,1.877,0.0,-0.4875,-0.4624,-0.463,0.0,0.0,-0.4646,0.0,-0.4253,0.914,1.0,0.0,0.0,0.0,-0.003061,0.0,0.0,-0.5,-0.6367,0.459,0.0,1.0,-0.5,0.5,0.0,0.0,0.0,-0.03653
-0.4644,-0.4612,-0.4644,-0.639,0.537,0.0718,-0.2279,-0.445,0.708,-0.4526,-0.1356,0.1559,0.7144,-0.98,0.0,-1.0,0.4683,0.5347,-0.287,0.0,-0.2098,-0.4272,-0.3057,-0.34,0.2644,-0.3484,0.0878,0.2272,-0.4478,-0.6704,0.0,0.963,0.2471,-0.4622,-0.463,0.0,0.0,-0.4644,0.0,-0.425,0.868,1.0,0.0,0.0,0.0,0.001453,0.0,0.0,-0.5,-0.666,0.4866,1.0,0.0,-0.5,0.5,0.0,0.0,0.0,0.01765
-0.4644,-0.4612,-0.4644,-0.2074,0.1045,0.0718,-0.2279,-0.3438,0.2026,-0.551,-0.1334,-0.6025,0.7144,-0.98,0.0,-1.0,0.5957,0.653,-0.3672,0.0,-0.2079,-0.06934,-0.3,-0.335,-0.171,-0.347,0.0926,-0.903,-0.447,0.2275,0.0,1.877,0.2454,-0.462,-0.463,0.0,0.0,-0.4644,0.0,-0.4265,0.538,0.0,0.0,0.0,0.0,-0.01366,-1.0,-0.5,-0.5,-0.202,0.10626,0.0,1.0,-0.5,0.5,0.0,0.0,0.0,-0.1649
-0.464,-0.461,-0.4644,-0.1852,0.0817,0.0718,-0.2279,-0.3745,0.1392,-0.548,-0.1312,-0.144,0.7144,-0.98,0.0,-1.0,0.5894,0.651,-0.3672,0.0,-0.2059,-0.737,-0.2964,-0.3308,-0.1888,-0.3435,0.12134,0.0,-0.4473,-0.905,-0.6704,0.0,-0.2438,-0.462,-0.463,0.0,0.0,-0.4644,0.0,-0.4265,0.538,0.0,0.0,0.0,0.0,0.0,-1.0,-0.5,-0.5,-0.2039,0.05878,0.0,0.0,-0.5,0.5,0.0,0.0,0.0,0.0
-0.464,-0.461,-0.4644,0.02649,-0.1309,0.0718,0.771,-0.3538,-0.1421,-0.595,-0.129,-1.46,0.7144,-0.98,-1.0,-1.0,0.651,0.712,-0.4072,0.0,-0.204,0.623,-0.2937,-0.3271,-0.4844,-0.3276,0.0878,-0.4626,-0.4514,0.0,0.2275,0.0,0.7363,-0.4622,-0.463,0.0,0.0,-0.464,0.0,-0.4272,0.538,0.0,0.0,0.0,0.0,-0.002237,-1.0,-1.0,-0.5,0.013275,-0.1392,0.0,1.0,-0.5,0.5,0.0,0.0,0.0,-0.02768
-0.464,-0.461,-0.4644,0.02638,-0.1313,0.0718,0.771,-0.3538,-0.1963,-0.592,-0.1271,0.8223,0.5713,-0.98,-1.0,-1.0,0.6465,0.7075,-0.4072,0.0,-0.2019,-1.066,-0.294,-0.325,-0.4868,-0.3271,0.0942,0.0,-0.455,-0.4634,-0.905,-0.6704,0.0,-0.4624,-0.4626,0.0,0.0,-0.464,0.0,-0.4272,0.4812,0.0,0.0,0.0,0.0,0.0,-1.0,-1.0,-1.0,0.00168,-0.1519,0.0,0.0,-0.5,0.5,0.0,0.0,0.0,0.0
-0.4644,-0.4612,-0.4644,0.1238,-0.2296,0.0718,0.771,-0.406,-0.3433,-0.614,-0.1255,1.285,0.4285,-0.98,-1.0,-1.0,0.6714,0.74,-0.4272,0.0,-0.2,-1.064,-0.2961,-0.323,-0.6396,-0.318,0.0367,-0.2343,-0.4563,0.0,0.0,0.2275,0.963,-0.4626,-0.4626,0.0,0.0,-0.4639,0.0,-0.4277,0.3228,0.0,0.0,0.0,0.0,-1.15e-05,-2.0,-1.5,-1.5,0.0966,-0.2487,0.0,1.0,-0.5,0.5,0.0,0.0,0.0,-0.0001445
-0.4644,-0.4612,-0.4644,0.2129,-0.32,0.0718,0.771,-0.5225,-0.4897,-0.6357,-0.12396,0.689,0.2856,-0.98,-1.0,-1.0,0.692,0.779,-0.4473,0.0,-0.198,-1.082,-0.301,-0.322,-0.7676,-0.314,-0.0926,-0.2357,-0.4568,-0.2346,-0.4636,-0.905,1.877,-0.463,-0.4626,0.0,0.0,-0.4639,0.0,-0.428,0.3228,0.0,0.0,0.0,0.0,-0.0006,-2.0,-1.5,-1.5,0.1599,-0.3625,0.0,2.0,-0.5,0.5,0.0,1.0,-1.25,-0.00756
-0.4644,-0.4612,-0.4646,0.295,-0.4026,0.0718,0.771,-0.6406,-0.6055,-0.6577,-0.1232,0.4211,0.1428,-0.98,-1.0,-1.0,0.7124,0.817,-0.4673,0.0,-0.196,-1.06,-0.3086,-0.3215,-0.8813,-0.3123,-0.1086,-0.2372,-0.4578,-0.2361,0.0,0.0,0.0,-0.4631,-0.4626,0.0,0.0,-0.4639,0.0,-0.4285,0.01206,0.0,0.0,0.0,0.0,-0.0001557,-2.0,-1.5,-2.0,0.252,-0.4312,0.0,3.0,-0.5,0.5,0.0,0.0,0.0,-0.001976
-0.4644,-0.4612,-0.4646,0.1696,-0.277,0.0718,0.771,-0.6177,-0.512,-0.6284,-0.1224,-0.06085,0.0,-0.98,-1.0,-1.0,0.6763,0.7754,-0.4473,0.0,-0.1941,-0.7197,-0.3206,-0.322,-0.785,-0.3105,-0.1261,0.2386,-0.4587,-0.2375,-0.2346,-0.4636,0.0,-0.4631,-0.4626,0.0,0.0,-0.4639,0.0,-0.428,0.09106,0.0,0.0,0.0,0.0,0.002462,-1.0,-1.5,-1.5,0.0952,-0.3445,1.0,0.0,-0.5,0.5,0.0,0.0,0.0,0.03143
-0.4644,-0.4612,-0.4646,-0.0398,-0.06775,0.0718,0.771,-0.7295,-0.296,-0.5737,-0.1219,-0.397,-0.1428,-0.98,-1.0,-1.0,0.598,0.71,-0.4072,0.0,-0.1921,-0.7285,-0.3381,-0.323,-0.624,-0.3005,-0.0942,0.4744,-0.4612,0.2391,-0.2362,0.0,-0.6704,-0.4634,-0.4624,0.0,0.0,-0.4639,0.0,-0.4272,-0.07355,0.0,0.0,0.0,0.0,0.002457,0.0,-1.0,-1.5,-0.1776,-0.2113,2.0,0.0,-0.5,0.5,0.0,0.0,0.0,0.03116
-0.4646,-0.4614,-0.4646,0.7803,-0.889,0.0718,0.2861,-0.66,-1.045,-0.774,-0.1246,3.574,-0.2856,-0.98,-1.0,-1.0,0.869,0.983,-0.5674,0.0,-0.1902,0.01848,-0.3499,-0.3254,-1.422,-0.3098,-0.11816,-1.874,-0.4604,0.475,-0.2377,-0.2346,0.2275,-0.4636,-0.4624,0.0,0.0,-0.4639,0.0,-0.4304,-1.5,0.0,1.0,0.0,0.0,-0.001753,0.0,-1.5,-2.0,0.7114,-0.925,0.0,1.0,-0.5,0.5,0.0,1.0,-5.0,-0.02196
-0.4646,-0.4614,-0.4648,0.925,-1.033,0.0718,0.0397,-0.6753,-1.131,-0.8184,-0.1276,0.2228,-0.4285,-0.98,-1.0,-1.0,0.9316,1.05,-0.6074,0.0,-0.1882,0.03745,-0.3599,-0.3296,-1.495,-0.3381,-0.0766,-0.4932,-0.4583,-1.877,0.2391,-0.2362,-0.905,-0.4639,-0.4626,0.0,0.0,-0.4639,0.0,-0.4312,-1.545,0.0,1.0,0.0,0.0,-0.00362,0.0,-1.5,-2.0,0.8774,-1.04,0.0,2.0,-0.5,0.5,0.0,0.0,0.0,-0.04776
-0.4648,-0.4617,-0.465,0.6245,-0.7324,0.0718,0.0397,-0.66,-0.791,-0.76,-0.1301,-0.2224,-0.5713,-0.98,-1.0,-1.0,0.8496,0.9624,-0.5674,0.0,-0.1863,0.01848,-0.3533,-0.3347,-0.882,-0.4167,-0.09576,0.4998,-0.4575,-0.494,0.4753,-0.2377,0.0,-0.464,-0.4626,0.0,0.0,-0.4639,0.0,-0.4304,-1.297,0.0,1.0,0.0,0.0,0.001799,1.0,-1.0,-1.5,0.575,-0.754,1.0,0.0,-0.5,0.5,0.0,0.0,0.0,0.02405
-0.4648,-0.4617,-0.465,0.674,-0.782,0.0718,0.0397,-0.7173,-0.796,-0.7783,-0.1322,0.1333,-0.7144,-0.98,-1.0,-1.0,0.872,0.9937,-0.5874,0.0,-0.1843,-1.046,-0.3462,-0.3406,-0.9297,-0.4285,-0.07983,-0.2466,-0.4556,0.5005,-1.877,0.2391,-0.4636,-0.4644,-0.4626,0.0,0.0,-0.4639,0.0,-0.4307,-1.226,0.0,1.0,0.0,0.0,-0.0002825,0.0,-1.0,-1.5,0.624,-0.802,0.0,1.0,-0.5,0.5,0.0,0.0,0.0,-0.003725
-0.465,-0.462,-0.4653,0.9385,-1.047,0.0718,0.0397,-0.6567,-0.994,-0.849,-0.1351,0.4224,-0.857,-0.98,-1.0,-1.0,0.977,1.095,-0.6475,0.0,-0.1824,0.05692,-0.337,-0.3467,-1.098,-0.4597,-0.0942,-0.7446,-0.4517,-0.247,-0.4941,0.4753,0.0,-0.4646,-0.4626,0.0,0.0,-0.4639,0.0,-0.432,-1.449,0.0,1.0,0.0,0.0,-0.004066,-1.0,-1.0,-2.0,0.8696,-1.076,0.0,2.0,-0.5,0.5,0.0,0.0,0.0,-0.05396
-0.4653,-0.4622,-0.4653,0.852,-0.9604,0.0718,0.0397,-0.6567,-0.887,-0.842,-0.1371,0.0006223,-1.0,-0.98,-1.0,-1.0,0.967,1.084,-0.6475,0.0,-0.1804,0.05692,-0.3232,-0.349,-0.8003,-0.5156,-0.0974,0.0,-0.4482,-0.7456,0.5005,-1.877,-0.2346,-0.4648,-0.4626,0.0,0.0,-0.464,0.0,-0.432,-1.322,0.0,1.0,0.0,0.0,0.0,-1.0,-1.0,-2.0,0.787,-0.989,0.0,0.0,-0.5,-1.0,0.0,0.0,0.0,0.0
-0.4656,-0.4624,-0.4656,1.226,-1.334,-0.9756,0.0397,-0.5483,-1.203,-0.939,-0.14,0.546,-1.143,-0.98,-1.0,-1.0,1.118,1.227,-0.7275,0.0,-0.1785,0.09753,-0.3079,-0.3433,-0.991,-0.564,-0.099,-1.013,-0.4456,0.0,-0.2471,-0.4941,-0.2361,-0.4648,-0.4626,0.0,0.0,-0.4644,0.0,-0.4333,-1.449,0.0,1.0,0.0,0.0,-0.01206,-1.0,-1.0,-2.0,1.177,-1.329,0.0,1.0,-0.5,-1.0,0.0,0.0,0.0,-0.1633
-0.4656,-0.4624,-0.4658,1.465,-1.573,-0.9756,0.0397,-0.6235,-1.402,-1.009,-0.1431,0.3176,-1.143,-0.98,-1.0,-1.0,1.223,1.346,-0.7876,0.0,-0.1765,-0.254,-0.295,-0.3352,-1.186,-0.592,-0.10535,-0.781,-0.4424,-1.015,-0.746,0.5005,-0.2377,-0.4648,-0.4626,0.0,0.0,-0.4646,0.0,-0.4346,-1.476,0.0,1.0,0.0,0.0,-0.00408,-2.0,-1.0,-2.0,1.451,-1.521,0.0,2.0,-0.5,-1.0,0.0,0.0,0.0,-0.05682
-0.4656,-0.4624,-0.4658,1.093,-1.2,-0.9756,0.0397,-0.573,-1.041,-0.948,-0.1455,-0.1698,-1.143,-0.98,-1.0,-1.0,1.131,1.243,-0.7476,0.0,-0.1746,-0.648,-0.2854,-0.3276,-0.884,-0.6045,-0.1469,0.5317,-0.4424,-0.782,0.0,-0.2471,0.2391,-0.4648,-0.463,0.0,0.0,-0.4648,0.0,-0.4338,-1.247,0.0,1.0,0.0,0.0,0.001834,-1.0,-1.0,-1.5,1.105,-1.137,1.0,0.0,-0.5,-1.0,0.0,0.0,0.0,0.02606
-0.4656,-0.4624,-0.4658,0.8774,-0.9834,-0.9673,0.0397,-0.444,-0.806,-0.912,-0.1473,-0.1365,-1.143,-0.98,-1.0,-1.0,1.085,1.177,-0.7275,0.0,-0.1726,0.473,-0.2786,-0.3213,-0.6914,-0.618,-0.2028,0.262,-0.4426,0.5327,-1.015,-0.746,0.4753,-0.4648,-0.463,0.0,0.0,-0.465,0.0,-0.4333,-1.109,0.0,1.0,0.0,0.0,0.001925,0.0,-1.0,-1.0,0.8975,-0.921,2.0,0.0,-0.5,-1.0,0.0,0.0,0.0,0.027
-0.4656,-0.4624,-0.4658,0.7964,-0.903,-0.9673,0.0397,-0.479,-0.694,-0.902,-0.149,-0.03897,-1.143,-0.98,-1.0,-1.0,1.067,1.164,-0.7275,0.0,-0.1705,-1.082,-0.275,-0.316,-0.657,-0.6245,-0.1006,0.0,-0.4448,0.2625,-0.782,0.0,-1.877,-0.4648,-0.463,0.0,0.0,-0.4653,0.0,-0.4333,-1.072,0.0,1.0,0.0,0.0,0.0,0.0,-1.0,-1.0,0.807,-0.853,0.0,0.0,-0.5,-1.0,0.0,0.0,0.0,0.0
-0.4656,-0.4624,-0.4658,0.3923,-0.498,-0.9673,0.0397,-0.4426,-0.2585,-0.814,-0.15,-0.6265,-1.143,-0.98,-1.0,-1.0,0.9414,1.027,-0.6675,0.0,-0.1686,-0.301,-0.2744,-0.3118,-0.273,-0.6304,-0.0814,0.781,-0.4465,0.0,0.5327,-1.015,-0.4941,-0.4648,-0.463,0.0,0.0,-0.4653,0.0,-0.4321,-0.742,0.0,0.0,0.0,0.0,0.00417,1.0,-0.5,-0.5,0.441,-0.4253,1.0,0.0,-0.5,-1.0,0.0,0.0,0.0,0.05804
-0.4656,-0.4624,-0.4658,0.576,-0.6826,-0.9673,0.0397,-0.317,-0.3872,-0.8574,-0.1516,0.8267,-1.143,-0.98,-1.0,-1.0,1.013,1.084,-0.7075,0.0,-0.1666,0.46,-0.2756,-0.3074,-0.3242,-0.6616,-0.11816,-0.51,-0.4485,0.782,0.2627,-0.782,0.5005,-0.4648,-0.4631,0.0,0.0,-0.4653,0.0,-0.4329,-0.9165,0.0,0.0,0.0,0.0,-0.005177,1.0,-1.0,-1.0,0.621,-0.6055,0.0,1.0,-0.5,-1.0,0.0,0.0,0.0,-0.0706
-0.4656,-0.4624,-0.4658,0.747,-0.8555,-0.9673,0.0397,-0.2927,-0.484,-0.9014,-0.154,0.449,-1.143,-0.98,-1.0,-1.0,1.079,1.149,-0.7476,0.0,-0.1647,-1.026,-0.2808,-0.3037,-0.455,-0.68,-0.11334,-0.517,-0.4495,-0.5107,0.0,0.5327,-0.2471,-0.4648,-0.4631,0.0,0.0,-0.4653,0.0,-0.4336,-1.176,0.0,1.0,0.0,0.0,-0.0008073,0.0,-1.0,-1.5,0.7114,-0.8574,0.0,2.0,-0.5,-1.0,0.0,0.0,0.0,-0.01116
-0.4656,-0.4624,-0.4658,0.1318,-0.2396,-0.704,0.0397,-0.4197,0.1492,-0.76,-0.1537,-1.507,-1.0,-0.98,0.0,-1.0,0.866,0.946,-0.6475,0.0,-0.1627,0.422,-0.2905,-0.3018,0.1447,-0.6807,-0.07825,1.311,-0.4524,-0.5176,0.782,0.2627,-0.746,-0.4648,-0.4631,0.0,0.0,-0.4653,0.0,-0.4316,-0.359,0.0,0.0,0.0,0.0,0.00551,0.0,-0.5,-1.0,0.1534,-0.2064,1.0,0.0,-1.0,-1.0,0.0,0.0,0.0,0.0772
-0.4656,-0.4624,-0.4658,0.228,-0.3362,-0.704,0.0397,-0.3745,0.05515,-0.778,-0.1532,-0.3782,-0.857,-0.98,0.0,-1.0,0.8945,0.9688,-0.6675,0.0,-0.1608,0.4346,-0.3035,-0.3013,-0.005585,-0.676,-0.07825,-0.2532,-0.4553,1.3125,-0.5107,0.0,0.0,-0.4648,-0.4631,0.0,0.0,-0.4653,0.0,-0.4321,-0.295,0.0,0.0,0.0,0.0,-0.007393,0.0,-0.5,-1.0,0.2346,-0.3147,0.0,1.0,-1.0,-1.0,0.0,0.0,0.0,-0.1001
-0.4656,-0.4624,-0.4658,-0.3076,0.2006,-0.704,0.0397,-0.3965,0.656,-0.637,-0.1522,6.062,-0.7144,-0.98,0.0,-1.0,0.702,0.7715,-0.5674,0.0,-0.1588,-0.3372,-0.3125,-0.303,0.4963,-0.6606,-0.01596,1.274,-0.4578,-0.2537,-0.518,0.782,-1.015,-0.4648,-0.4631,0.0,0.0,-0.4653,0.0,-0.43,-0.07355,0.0,0.0,0.0,0.0,0.02852,0.0,0.0,-1.0,-0.2367,0.2678,1.0,0.0,-1.0,-1.0,0.0,0.0,0.0,0.389
-0.4656,-0.4624,-0.4658,-0.57,0.4644,-0.3457,0.0397,-0.299,0.9795,-0.55,-0.1505,0.628,-0.5713,-0.98,0.0,-1.0,0.597,0.6484,-0.5073,0.0,-0.1569,0.3398,-0.3254,-0.3066,0.681,-0.6333,0.0447,0.7397,-0.4587,1.276,1.3125,-0.5107,-0.782,-0.4648,-0.4631,0.0,0.0,-0.4653,0.0,-0.4287,0.1782,0.0,0.0,0.0,0.0,0.02605,1.0,0.5,-0.5,-0.494,0.5254,2.0,0.0,-1.0,-1.0,0.0,0.0,0.0,0.3435
-0.4656,-0.4624,-0.4658,-1.503,1.404,1.008,0.0397,-0.2035,2.125,-0.2498,-0.1459,1.346,-0.4285,-0.98,0.0,-1.0,0.2532,0.2761,-0.287,0.0,-0.1549,1.853,-0.3386,-0.3125,1.658,-0.585,0.03513,2.51,-0.4517,0.7407,-0.2537,-0.518,0.5327,-0.4648,-0.4631,0.0,0.0,-0.4653,0.0,-0.4243,0.8438,1.0,0.0,0.0,0.0,0.08344,2.0,0.5,0.0,-1.284,1.578,3.0,0.0,-1.0,-1.0,1.0,0.0,7.53,1.079
-0.4656,-0.4624,-0.4658,-1.645,1.674,1.582,0.0397,-0.228,2.152,-0.11,-0.1403,0.3137,-0.2856,-0.9697,0.0,0.0,0.10394,0.12396,-0.1871,0.0,-0.153,-0.4558,-0.3442,-0.3206,2.041,-0.5635,0.05588,1.129,-0.442,2.514,1.277,1.3125,0.2625,-0.4644,-0.4631,0.0,0.0,-0.4653,0.0,-0.4224,0.9736,1.0,0.0,0.0,0.0,0.01099,2.0,0.5,0.5,-1.446,1.846,4.0,0.0,-0.5,-1.0,1.0,0.0,7.53,0.1327
-0.4653,-0.4622,-0.4656,-1.349,1.254,1.582,0.0397,-0.1957,1.919,-0.1842,-0.1343,-0.12286,-0.1428,-0.9595,0.0,0.0,0.1833,0.2021,-0.2472,0.0,-0.151,-0.117,-0.3428,-0.33,1.664,-0.5493,0.099,-0.657,-0.4343,1.131,0.741,-0.2537,0.0,-0.4634,-0.4631,0.0,0.0,-0.4653,0.0,-0.4236,1.043,1.0,0.0,0.0,0.0,-0.001592,2.0,0.5,0.5,-1.134,1.431,0.0,1.0,-0.5,-1.0,0.0,0.0,0.0,-0.01866
-0.465,-0.462,-0.4653,-1.045,0.9507,1.582,0.3262,-0.1432,1.461,-0.2322,-0.1283,-0.1293,0.0,-0.9595,0.0,-1.0,0.2383,0.252,-0.287,0.0,-0.149,-0.1015,-0.3386,-0.3396,1.371,-0.539,0.0894,-0.446,-0.4294,-0.6587,2.514,1.277,0.782,-0.463,-0.4631,0.0,0.0,-0.4653,0.0,-0.4243,1.115,1.0,0.0,0.0,0.0,-0.001038,1.0,0.0,0.5,-0.8394,1.13,0.0,2.0,-0.5,-1.0,0.0,0.0,0.0,-0.01238
-0.465,-0.462,-0.465,-0.854,0.7593,1.582,0.3262,-0.1317,1.153,-0.254,-0.1229,-0.0973,0.1428,-0.9595,0.0,-1.0,0.2627,0.2756,-0.3071,0.0,-0.1471,-0.4214,-0.334,-0.3447,1.196,-0.529,0.1516,-0.2257,-0.4258,-0.4468,1.131,0.741,-0.5107,-0.4624,-0.4631,0.0,0.0,-0.4653,0.0,-0.4248,0.9966,1.0,0.0,0.0,0.0,-0.0008936,0.0,0.0,0.0,-0.6553,0.94,0.0,3.0,-0.5,-1.0,0.0,0.0,0.0,-0.010796
-0.4648,-0.4617,-0.465,-0.77,0.6743,1.582,0.3262,-0.2532,0.9727,-0.2487,-0.1178,-0.0382,0.2856,-0.9595,0.0,-1.0,0.2488,0.2783,-0.3071,0.0,-0.1451,-1.076,-0.329,-0.3494,1.126,-0.517,0.2156,0.0,-0.4226,-0.2262,-0.6587,2.514,-0.518,-0.462,-0.4631,0.0,0.0,-0.4653,0.0,-0.4248,0.9717,1.0,0.0,0.0,0.0,0.0,-1.0,0.0,-0.5,-0.5747,0.8545,0.0,0.0,-0.5,-1.0,0.0,0.0,0.0,0.0
-0.4646,-0.4614,-0.4648,-0.6035,0.5073,1.582,0.3262,-0.2117,0.6924,-0.269,-0.1127,-0.174,0.4285,-0.9595,0.0,-1.0,0.2737,0.2986,-0.3271,0.0,-0.1432,-1.074,-0.3247,-0.352,0.964,-0.5093,0.1708,-0.2272,-0.4207,0.0,-0.447,1.131,1.3125,-0.4617,-0.4631,0.0,0.0,-0.4653,0.0,-0.425,0.8994,1.0,0.0,0.0,0.0,-0.0016775,-2.0,-0.5,-0.5,-0.4363,0.6646,0.0,1.0,-0.5,-1.0,0.0,0.0,0.0,-0.02039
-0.4646,-0.4614,-0.4646,-0.723,0.6265,1.582,0.3262,-0.264,0.7573,-0.2096,-0.108,0.2216,0.5713,-0.9595,0.0,-1.0,0.2058,0.2351,-0.287,0.0,-0.1412,-0.753,-0.3206,-0.351,1.103,-0.4949,0.2123,0.457,-0.4187,-0.2275,-0.2262,-0.6587,-0.2537,-0.4617,-0.4631,0.0,0.0,-0.465,0.0,-0.4243,0.872,1.0,0.0,0.0,0.0,0.003263,-1.0,0.0,-0.5,-0.5557,0.7793,1.0,0.0,-0.5,-1.0,0.0,0.0,0.0,0.0399
-0.4644,-0.4612,-0.4646,-0.741,0.6426,1.582,0.3262,-0.3945,0.6865,-0.1772,-0.1026,0.0307,0.7144,-0.9497,0.0,0.0,0.1626,0.2087,-0.267,0.0,-0.1392,-1.08,-0.3186,-0.3481,1.132,-0.481,0.1628,0.2257,-0.418,0.4578,0.0,-0.447,1.277,-0.4617,-0.4631,0.0,0.0,-0.4648,0.0,-0.4238,1.048,1.0,0.0,0.0,0.0,4.613e-05,0.0,0.0,0.0,-0.586,0.7817,2.0,0.0,-0.5,-1.0,0.0,0.0,0.0,0.000557
-0.464,-0.461,-0.4644,-0.7563,0.6567,1.582,0.558,-0.3447,0.5933,-0.1453,-0.0966,-0.01211,0.857,-0.9395,0.0,0.0,0.1323,0.1702,-0.2472,0.0,-0.1372,-0.117,-0.318,-0.3445,1.09,-0.4553,0.1389,0.2244,-0.4194,0.2262,-0.2275,-0.2262,0.741,-0.4617,-0.4631,0.0,0.0,-0.4646,0.0,-0.4236,1.231,1.0,0.0,0.0,0.0,0.004196,1.0,0.0,0.5,-0.6475,0.746,3.0,0.0,-0.5,-1.0,0.0,0.0,0.0,0.05038
-0.464,-0.461,-0.4644,-0.1339,0.03174,1.582,0.5537,-0.2817,-0.1641,-0.3022,-0.09296,-1.159,0.7144,-0.9497,-1.0,-1.0,0.3057,0.3418,-0.3672,0.0,-0.1353,-0.403,-0.3193,-0.3406,0.3313,-0.4385,-0.01596,-1.338,-0.4229,0.2247,0.458,0.0,2.514,-0.462,-0.4631,0.0,0.0,-0.4644,0.0,-0.4258,0.6396,0.0,0.0,0.0,0.0,-0.0302,1.0,-0.5,0.0,0.01857,0.193,0.0,1.0,-0.5,-1.0,0.0,1.0,-4.707,-0.3604
-0.464,-0.461,-0.464,-0.3071,0.2026,1.582,0.5537,-0.3645,-0.0793,-0.2434,-0.08875,-0.7417,0.5713,-0.9595,-1.0,-1.0,0.2354,0.2803,-0.3271,0.0,-0.1333,-0.4153,-0.3196,-0.3354,0.314,-0.3962,-0.1022,0.4626,-0.426,-1.341,0.2262,-0.2275,1.131,-0.462,-0.4631,0.0,0.0,-0.464,0.0,-0.425,0.7725,0.0,0.0,0.0,0.0,0.003586,2.0,-0.5,0.5,-0.1852,0.3242,1.0,0.0,-0.5,-1.0,0.0,0.0,0.0,0.04437
-0.464,-0.461,-0.464,-0.1829,0.07605,1.582,0.5537,-0.477,-0.269,-0.2656,-0.0858,9.266,0.4285,-0.9697,-1.0,-1.0,0.252,0.3135,-0.3472,0.0,-0.1313,-1.082,-0.319,-0.33,0.03592,-0.3655,-0.0654,-0.2285,-0.4302,0.4634,0.2249,0.458,-0.6587,-0.462,-0.4631,0.0,0.0,-0.4639,0.0,-0.4255,0.5303,0.0,0.0,0.0,0.0,-0.000513,1.0,-0.5,0.0,-0.0865,0.1757,0.0,1.0,-0.5,-1.0,0.0,0.0,0.0,-0.00627
-0.4639,-0.4607,-0.464,-0.2573,0.1488,1.582,0.5537,-0.578,-0.2305,-0.2336,-0.0834,-0.0741,0.2856,-0.98,-1.0,-1.0,0.2103,0.2844,-0.3271,0.0,-0.1294,-0.745,-0.3137,-0.3232,-0.1543,-0.3098,-0.0415,0.2299,-0.4336,-0.2289,-1.341,0.2262,-0.447,-0.462,-0.463,0.0,0.0,-0.4636,0.0,-0.425,0.447,0.0,0.0,0.0,0.0,0.0006976,1.0,0.0,0.0,-0.2737,0.1252,1.0,0.0,-0.5,-1.0,0.0,0.0,0.0,0.00858
-0.4639,-0.4607,-0.4639,-0.4143,0.306,1.582,0.5537,-0.807,-0.01857,-0.1749,-0.0829,-1.216,0.2856,-0.98,0.0,0.0,0.1321,0.2355,-0.287,0.0,-0.1274,-0.1015,-0.307,-0.3184,-0.03458,-0.2927,-0.02873,0.457,-0.4387,0.2303,0.4636,0.2249,-0.2262,-0.462,-0.463,0.0,0.0,-0.4634,0.0,-0.4243,-0.07355,0.0,0.0,0.0,0.0,0.006596,1.0,0.5,0.0,-0.4604,0.2439,2.0,0.0,-0.5,-1.0,0.0,0.0,0.0,0.0806
-0.4636,-0.4604,-0.4639,-0.5527,0.4438,1.582,0.5537,-0.911,0.2163,-0.1167,-0.08307,6.973,0.2856,-0.98,0.0,0.0,0.06433,0.1797,-0.2472,0.0,-0.1255,-0.7607,-0.3027,-0.3162,0.1785,-0.2932,-0.02715,0.4514,-0.4473,0.4578,-0.229,-1.341,0.0,-0.462,-0.4626,0.0,0.0,-0.4631,0.0,-0.4236,-0.3303,0.0,0.0,0.0,0.0,0.010574,2.0,1.0,0.0,-0.606,0.3684,3.0,0.0,-0.5,-1.0,0.0,0.0,0.0,0.1277
-0.4636,-0.4604,-0.4636,-0.5864,0.4778,1.582,0.5537,-0.918,0.3147,-0.0853,-0.0824,0.524,0.2856,-0.98,0.0,0.0,0.03183,0.1469,-0.2272,0.0,-0.12354,-0.12463,-0.3005,-0.3157,0.245,-0.286,-0.006386,0.223,-0.4534,0.4524,0.2303,0.4636,-0.2275,-0.462,-0.4626,0.0,0.0,-0.463,0.0,-0.423,0.0195,0.0,0.0,0.0,0.0,0.002981,2.0,1.5,0.5,-0.651,0.3892,4.0,0.0,-0.5,-1.0,0.0,0.0,0.0,0.03558
-0.4634,-0.4602,-0.4636,-0.6157,0.5073,1.582,0.5537,-0.9834,0.3896,-0.0536,-0.08105,0.349,0.2856,-0.98,0.0,0.0,-0.004578,0.11816,-0.2072,0.0,-0.1216,-0.768,-0.3003,-0.317,0.34,-0.2842,-0.03033,0.2217,-0.4631,0.2234,0.458,-0.229,0.4578,-0.4617,-0.4624,0.0,0.0,-0.4626,0.0,-0.4226,0.3157,0.0,0.0,0.0,0.0,0.0008016,3.0,1.5,1.0,-0.6807,0.4177,5.0,0.0,0.0,-1.0,0.0,0.0,0.0,0.00951
-0.4634,-0.4602,-0.4634,-0.5547,0.4465,1.582,0.5537,-0.954,0.3508,-0.04752,-0.07935,0.0307,0.2856,-0.98,0.0,0.0,-0.00861,0.1098,-0.2072,0.0,-0.1196,-0.1322,-0.3018,-0.3188,0.3135,-0.279,-0.03992,0.0,-0.4663,0.2222,0.4524,0.2303,0.2262,-0.4614,-0.4622,0.0,0.0,-0.4624,0.0,-0.4226,0.436,0.0,0.0,0.0,0.0,0.0,2.0,1.0,1.0,-0.6226,0.356,0.0,0.0,0.0,-1.0,0.0,0.0,0.0,0.0
-0.4631,-0.46,-0.4634,-0.6733,0.566,1.582,0.5537,-0.9087,0.508,0.013245,-0.07715,0.551,0.2856,-0.98,0.0,0.0,-0.06525,0.04425,-0.1671,0.0,-0.1177,-0.4612,-0.305,-0.321,0.5073,-0.2764,-0.0511,0.441,-0.4663,0.0,0.2235,0.458,0.2249,-0.4612,-0.462,0.0,0.0,-0.4624,0.0,-0.4219,0.5776,0.0,0.0,0.0,0.0,0.001707,2.0,1.0,1.5,-0.7275,0.485,1.0,0.0,0.0,-1.0,0.0,0.0,0.0,0.02013
-0.463,-0.4597,-0.4631,-0.945,0.839,1.582,0.5537,-0.8203,0.834,0.1283,-0.074,0.764,0.2856,-0.98,0.0,0.0,-0.1683,-0.0757,-0.08704,0.0,-0.11566,0.1316,-0.3093,-0.3218,0.8394,-0.2607,0.0511,0.8716,-0.4663,0.4417,0.2222,0.4524,-1.341,-0.4607,-0.4617,0.0,0.0,-0.4622,0.0,-0.4204,0.914,1.0,0.0,0.0,0.0,0.01073,2.0,1.5,2.0,-0.9697,0.777,2.0,0.0,0.0,-1.0,0.0,0.0,0.0,0.125
-0.4626,-0.4595,-0.463,-0.852,0.746,-0.5654,0.5537,-0.8203,0.756,0.1334,-0.0713,0.02937,0.2856,-0.98,0.0,0.0,-0.1731,-0.0806,-0.08704,0.0,-0.1137,-0.79,-0.3145,-0.3223,0.757,-0.2456,0.0415,0.0,-0.4663,0.873,0.0,0.2235,0.4636,-0.4604,-0.4614,0.0,0.0,-0.4622,0.0,-0.4204,0.8184,1.0,0.0,0.0,0.0,0.0,1.0,1.0,1.5,-0.8926,0.672,0.0,0.0,0.0,-1.0,0.0,0.0,0.0,0.0
-0.4626,-0.4595,-0.4626,-0.5127,0.4067,-0.5654,0.5537,-0.741,0.397,0.0575,-0.06934,-0.3608,0.2856,-0.98,0.0,0.0,-0.09644,-0.01198,-0.1471,0.0,-0.11176,-0.7793,-0.3213,-0.323,0.3867,-0.2345,0.0766,-0.6387,-0.4663,0.0,0.4417,0.2222,-0.2289,-0.4604,-0.4612,0.0,0.0,-0.4622,0.0,-0.4214,0.4204,0.0,0.0,0.0,0.0,-0.010605,0.0,1.0,1.0,-0.544,0.3567,0.0,1.0,0.0,-1.0,0.0,0.0,0.0,-0.1208
-0.4626,-0.4595,-0.4626,0.0788,-0.1857,-0.5654,0.2537,-0.635,-0.22,-0.1003,-0.0688,-1.374,0.1428,-0.98,-1.0,0.0,0.06635,0.1425,-0.267,0.0,-0.1098,-0.1093,-0.3289,-0.3247,-0.24,-0.2332,0.0766,-1.3,-0.4663,-0.6396,0.873,0.0,0.2303,-0.4604,-0.4612,0.0,0.0,-0.4622,0.0,-0.4238,-0.1426,0.0,0.0,0.0,0.0,-0.003944,0.0,0.5,0.5,0.0283,-0.2314,0.0,2.0,0.0,-1.0,0.0,1.0,-4.57,-0.0457
-0.4626,-0.4595,-0.4626,-0.01923,-0.0884,-0.5654,0.2537,-0.792,-0.1603,-0.0649,-0.06665,-0.2764,0.1428,-0.98,-1.0,0.0,0.0198,0.1164,-0.2472,0.0,-0.10785,-1.082,-0.3374,-0.3264,-0.2418,-0.2126,0.0495,0.2244,-0.4663,-1.302,0.0,0.4417,0.4578,-0.4604,-0.461,0.0,0.0,-0.4622,0.0,-0.4233,0.4204,0.0,0.0,0.0,0.0,0.0001614,0.0,0.5,1.0,-0.0774,-0.1464,1.0,0.0,0.0,-1.0,0.0,0.0,0.0,0.001938
-0.4626,-0.4595,-0.4626,-0.01505,-0.09296,-0.5654,0.2537,-0.8516,-0.1897,-0.05722,-0.06494,0.439,0.1428,-0.98,-1.0,0.0,0.00806,0.1126,-0.2472,0.0,-0.1059,-1.082,-0.3435,-0.3289,-0.279,-0.2053,0.02075,0.0,-0.4663,0.2247,-0.64,0.873,0.4524,-0.4604,-0.4607,0.0,0.0,-0.462,0.0,-0.4233,0.2832,0.0,0.0,0.0,0.0,0.0,-1.0,0.0,0.5,-0.0844,-0.1627,0.0,0.0,0.0,-1.0,0.0,0.0,0.0,0.0
-0.4626,-0.4595,-0.4626,0.1754,-0.2837,-0.5654,0.2537,-0.717,-0.4187,-0.1049,-0.06354,2.021,0.1428,-0.98,-1.0,0.0,0.0655,0.1532,-0.287,0.0,-0.10394,0.2241,-0.349,-0.3325,-0.4685,-0.2083,0.004787,-0.446,-0.4663,0.0,-1.303,0.0,0.2235,-0.4607,-0.4607,0.0,0.0,-0.462,0.0,-0.4243,0.1832,0.0,0.0,0.0,0.0,-0.00422,-1.0,-0.5,0.5,0.1112,-0.34,0.0,1.0,0.0,-1.0,0.0,0.0,0.0,-0.05035
-0.4624,-0.4592,-0.4626,-0.7275,0.622,-0.222,0.2537,-0.5645,0.525,0.1772,-0.0603,-2.746,0.2856,-0.98,0.0,0.0,-0.1957,-0.1406,-0.08704,0.0,-0.102,1.668,-0.3484,-0.3364,0.4766,-0.1934,-0.01596,2.258,-0.4656,-0.4468,0.2249,-0.64,0.2222,-0.4607,-0.4604,0.0,0.0,-0.462,0.0,-0.4204,0.6816,0.0,0.0,0.0,0.0,0.0811,0.0,-0.5,0.5,-0.678,0.649,1.0,0.0,0.0,-1.0,0.0,0.0,0.0,0.9795
-0.4622,-0.459,-0.4624,-0.656,0.55,-0.222,0.2537,-0.593,0.449,0.1833,-0.05753,-0.01729,0.2856,-0.98,0.0,0.0,-0.2032,-0.1444,-0.08704,0.0,-0.1,-0.4827,-0.3464,-0.3408,0.4048,-0.1797,-0.006386,0.0,-0.4636,2.262,0.0,-1.303,0.0,-0.4607,-0.4602,0.0,0.0,-0.4617,0.0,-0.4204,0.595,0.0,0.0,0.0,0.0,0.0,0.0,-0.5,0.0,-0.6313,0.553,0.0,0.0,0.0,-1.0,0.0,0.0,0.0,0.0
-0.462,-0.459,-0.4622,-0.9214,0.817,-0.222,0.2537,-0.5137,0.767,0.3,-0.05432,0.8203,0.2856,-0.98,0.0,0.0,-0.301,-0.2573,-0.00698,0.0,-0.098,0.398,-0.3435,-0.3442,0.666,-0.1523,-0.02873,0.8516,-0.4592,0.0,-0.447,0.2249,0.4417,-0.4604,-0.46,0.0,0.0,-0.4617,0.0,-0.4187,0.6816,0.0,0.0,0.0,0.0,0.010445,0.0,-0.5,0.0,-0.86,0.848,1.0,0.0,0.0,-1.0,0.0,0.0,0.0,0.119
-0.4617,-0.4585,-0.4617,-1.454,1.353,-0.0898,0.2537,-0.4456,1.434,0.526,-0.04984,1.019,0.2856,-0.98,0.0,0.0,-0.4827,-0.4565,0.1531,0.0,-0.09607,0.8965,-0.3398,-0.3477,1.365,-0.1328,-0.07983,1.665,-0.4512,0.853,2.262,0.0,0.873,-0.4597,-0.46,0.0,0.0,-0.4614,0.0,-0.4155,0.918,1.0,0.0,0.0,0.0,0.01172,1.0,-0.5,0.0,-1.3125,1.447,2.0,0.0,0.0,-1.0,0.0,0.0,0.0,0.1305
-0.4612,-0.4583,-0.4614,-1.387,1.287,0.01168,0.2537,-0.3745,1.386,0.555,-0.04556,0.0912,0.2856,-0.98,0.0,0.0,-0.501,-0.4856,0.1731,0.0,-0.0941,0.026,-0.3347,-0.3481,1.292,-0.10065,-0.06067,0.1993,-0.4443,1.668,0.0,-0.447,0.0,-0.4592,-0.4597,0.0,0.0,-0.4612,0.0,-0.4153,0.918,1.0,0.0,0.0,0.0,0.003004,2.0,0.0,0.0,-1.241,1.389,3.0,0.0,0.0,-1.0,0.0,0.0,0.0,0.03204
-0.461,-0.4578,-0.4612,-1.099,1.0,0.01168,0.2537,-0.3567,1.056,0.5024,-0.04163,-0.1265,0.2856,-0.98,0.0,0.0,-0.458,-0.4434,0.1332,0.0,-0.09216,-0.2478,-0.3303,-0.3474,0.9976,-0.0826,0.00798,-0.3965,-0.4417,0.1997,0.8535,2.262,-0.64,-0.4585,-0.4597,0.0,0.0,-0.461,0.0,-0.416,0.7725,0.0,0.0,0.0,0.0,-0.003414,1.0,0.0,0.0,-0.964,1.103,0.0,1.0,0.0,-1.0,0.0,0.0,0.0,-0.0362
-0.461,-0.4578,-0.461,-0.258,0.1584,0.01168,0.123,-0.1025,0.1142,0.256,-0.03998,-0.807,0.2856,-0.98,0.0,0.0,-0.2346,-0.2467,-0.047,0.0,-0.0902,0.7217,-0.3281,-0.345,0.07324,-0.07556,0.1261,-1.804,-0.4436,-0.3972,1.669,0.0,-1.302,-0.4583,-0.4595,0.0,0.0,-0.4607,0.0,-0.4194,0.1832,0.0,0.0,0.0,0.0,-0.014946,1.0,0.0,-0.5,-0.0906,0.3306,0.0,2.0,0.0,-1.0,0.0,1.0,-6.316,-0.1602
-0.461,-0.4578,-0.461,-0.1444,0.04443,0.01168,0.01778,-0.1198,0.007557,0.2322,-0.03937,-0.563,0.2856,-0.98,0.0,0.0,-0.2146,-0.2235,-0.067,0.0,-0.08826,-0.1825,-0.327,-0.3428,-0.0489,-0.0708,0.1277,-0.2106,-0.4453,-1.807,0.1997,0.8535,0.2249,-0.4583,-0.4595,0.0,0.0,-0.4604,0.0,-0.42,-0.02802,0.0,0.0,0.0,0.0,-0.001263,0.0,-0.5,-1.0,0.03096,0.2297,0.0,3.0,0.0,-1.0,0.0,0.0,0.0,-0.01422
-0.4607,-0.4575,-0.461,-0.3835,0.2844,0.01168,0.01778,-0.09625,0.277,0.3174,-0.03836,4.773,0.2856,-0.9697,0.0,0.0,-0.287,-0.3025,-0.00698,0.0,-0.0863,-0.8037,-0.326,-0.3413,0.2102,-0.06354,0.1421,0.6353,-0.446,-0.2109,-0.3972,1.669,0.0,-0.458,-0.4592,0.0,0.0,-0.4604,0.0,-0.4187,0.09766,0.0,0.0,0.0,0.0,0.006695,0.0,0.0,-0.5,-0.2051,0.463,1.0,0.0,0.0,-1.0,0.0,0.0,0.0,0.0758
-0.4607,-0.4575,-0.4607,-0.4277,0.3286,0.01168,0.01778,-0.107,0.3184,0.346,-0.03653,0.2632,0.2856,-0.9595,0.0,0.0,-0.3125,-0.3271,0.01303,0.0,-0.0843,-0.5083,-0.3254,-0.34,0.259,-0.0537,0.1931,0.2081,-0.4463,0.636,-1.808,0.1997,-0.447,-0.458,-0.4592,0.0,0.0,-0.4602,0.0,-0.4185,0.2832,0.0,0.0,0.0,0.0,0.000398,0.0,0.5,0.0,-0.3018,0.4495,2.0,0.0,0.0,-1.0,0.0,0.0,0.0,0.00443
-0.4604,-0.4575,-0.4607,-0.4678,0.3674,0.01168,0.01778,-0.2278,0.309,0.3752,-0.03314,0.099,0.4285,-0.9497,0.0,0.0,-0.3452,-0.3442,0.03305,0.0,-0.08234,-0.81,-0.3267,-0.3396,0.333,-0.04898,0.05746,0.207,-0.4465,0.2085,-0.2109,-0.3972,2.262,-0.4583,-0.459,0.0,0.0,-0.4602,0.0,-0.418,0.673,0.0,0.0,0.0,0.0,5.764e-05,1.0,0.5,0.5,-0.3416,0.4868,3.0,0.0,0.0,-1.0,0.0,0.0,0.0,0.0006385
-0.4604,-0.4573,-0.4604,-0.421,0.3196,0.01168,0.01778,-0.2002,0.2092,0.3765,-0.03,-0.175,0.5713,-0.9395,0.0,0.0,-0.3442,-0.3472,0.03305,0.0,-0.0804,-0.81,-0.3276,-0.3396,0.2898,-0.04034,0.0671,0.0,-0.447,0.2074,0.636,-1.808,0.0,-0.4585,-0.459,0.0,0.0,-0.46,0.0,-0.418,0.6396,0.0,0.0,0.0,0.0,0.0,1.0,0.5,0.0,-0.2966,0.4387,0.0,0.0,0.0,-1.0,0.0,0.0,0.0,0.0
-0.4602,-0.4573,-0.4604,-0.3784,0.2761,0.01168,0.01778,-0.1727,0.1104,0.3777,-0.02686,-0.2837,0.7144,-0.929,0.0,0.0,-0.3435,-0.3503,0.03305,0.0,-0.0784,-0.81,-0.3296,-0.3403,0.2598,-0.0343,0.01277,0.0,-0.4473,0.0,0.2086,-0.2109,0.8535,-0.4585,-0.459,0.0,0.0,-0.46,0.0,-0.418,0.6396,0.0,0.0,0.0,0.0,0.0,1.0,0.0,0.0,-0.2764,0.3735,0.0,0.0,0.0,-1.0,0.0,0.0,0.0,0.0
-0.4602,-0.457,-0.4604,-0.341,0.2358,0.01168,0.01778,-0.2827,-0.001139,0.3787,-0.02328,-0.6113,0.857,-0.9194,0.0,0.0,-0.3518,-0.3433,0.03305,0.0,-0.0765,-1.082,-0.3328,-0.3406,0.1653,-0.015236,-0.11176,0.0,-0.4468,0.0,0.2074,0.636,1.669,-0.4585,-0.4587,0.0,0.0,-0.46,0.0,-0.418,0.7827,0.0,0.0,0.0,0.0,0.0,0.0,-0.5,0.0,-0.343,0.2241,0.0,0.0,0.0,-1.0,0.0,0.0,0.0,0.0
-0.4602,-0.457,-0.4602,-0.3064,0.2001,0.01168,0.01778,-0.4756,-0.0426,0.3796,-0.0219,-0.701,0.857,-0.909,0.0,0.0,-0.3657,-0.3303,0.03305,0.0,-0.0745,-0.513,-0.3318,-0.3386,-0.1011,0.03964,-0.1373,0.0,-0.4465,0.0,0.0,0.2086,0.1997,-0.4583,-0.4585,0.0,0.0,-0.4597,0.0,-0.418,0.3545,0.0,0.0,0.0,0.0,0.0,-1.0,-1.0,-0.5,-0.3096,0.1886,0.0,0.0,0.0,-1.0,0.0,0.0,0.0,0.0
-0.46,-0.457,-0.4602,-0.275,0.168,0.01168,0.01778,-0.503,-0.0839,0.3801,-0.02054,-3.176,0.7144,-0.899,-1.0,0.0,-0.3682,-0.3289,0.03305,0.0,-0.0726,-0.81,-0.3328,-0.3374,-0.1274,0.04517,-0.1165,0.0,-0.447,0.0,0.0,0.2074,-0.3972,-0.4583,-0.4585,0.0,0.0,-0.4597,0.0,-0.418,0.3545,0.0,0.0,0.0,0.0,0.0,-2.0,-1.0,-0.5,-0.3208,0.1125,0.0,0.0,0.0,-1.0,0.0,0.0,0.0,0.0
-0.46,-0.4568,-0.46,-0.4934,0.3867,0.01168,0.01778,-0.6094,0.17,0.463,-0.01953,-10.055,0.7144,-0.8887,0.0,0.0,-0.4434,-0.3923,0.0931,0.0,-0.0706,-0.5273,-0.3325,-0.3367,0.1047,0.05634,0.01915,0.6177,-0.4502,0.0,0.0,0.0,-1.807,-0.458,-0.4583,0.0,0.0,-0.4595,0.0,-0.4167,0.2954,0.0,0.0,0.0,0.0,0.01403,-1.0,-0.5,-0.5,-0.584,0.2747,1.0,0.0,0.0,-1.0,0.0,0.0,0.0,0.1545
-0.4597,-0.4565,-0.46,-0.684,0.5776,0.01168,0.01778,-0.792,0.4583,0.5444,-0.01971,1.53,0.7144,-0.879,0.0,0.0,-0.521,-0.447,0.1531,0.0,-0.0686,-0.829,-0.3333,-0.3367,0.39,0.0563,0.0463,0.608,-0.4526,0.6187,0.0,0.0,-0.2109,-0.458,-0.4583,0.0,0.0,-0.4592,0.0,-0.4158,-0.07355,0.0,0.0,0.0,0.0,0.002958,0.0,0.0,-0.5,-0.7485,0.4854,2.0,0.0,0.0,-1.0,1.0,0.0,3.297,0.03204
-0.4595,-0.4563,-0.4595,-1.076,0.971,0.01168,0.01778,-0.7793,0.998,0.708,-0.01894,1.283,0.7144,-0.8687,0.0,0.0,-0.6445,-0.5776,0.2732,0.0,-0.06665,0.5464,-0.3337,-0.3376,0.9976,0.0489,0.01596,1.196,-0.453,0.609,0.0,0.0,0.636,-0.4575,-0.458,0.0,0.0,-0.459,0.0,-0.4133,0.2954,0.0,0.0,0.0,0.0,0.00664,1.0,0.0,-0.5,-1.09,0.916,3.0,0.0,0.0,-1.0,0.0,0.0,0.0,0.0708
-0.4592,-0.456,-0.4592,-0.9707,0.866,0.01168,0.01778,-0.7534,0.9478,0.7056,-0.01767,0.0733,0.7144,-0.8584,0.0,0.0,-0.6406,-0.5776,0.2732,0.0,-0.0647,-0.01086,-0.3335,-0.3396,0.927,0.0629,0.02235,0.0,-0.4578,1.198,0.619,0.0,0.2086,-0.4573,-0.4578,0.0,0.0,-0.4587,0.0,-0.4133,0.4812,0.0,0.0,0.0,0.0,0.0,1.0,-0.5,-0.5,-1.077,0.717,0.0,0.0,0.0,-1.0,0.0,0.0,0.0,0.0
-0.459,-0.456,-0.4592,-0.568,0.4626,0.01168,0.01778,-0.805,0.4807,0.592,-0.015274,-0.3865,0.7144,-0.8486,0.0,0.0,-0.5586,-0.4846,0.1931,0.0,-0.06274,0.303,-0.3335,-0.3416,0.4978,0.073,0.02715,-0.7725,-0.4585,0.0,0.609,0.0,0.2074,-0.4568,-0.4575,0.0,0.0,-0.4585,0.0,-0.415,1.094,1.0,0.0,0.0,0.0,-0.003275,1.0,-1.0,-0.5,-0.6606,0.3447,0.0,1.0,0.0,-1.0,0.0,0.0,0.0,-0.03384
-0.459,-0.456,-0.4592,-0.02306,-0.08374,0.01168,0.01778,-0.7104,-0.1378,0.4236,-0.013916,-1.144,0.5713,-0.8384,-1.0,0.0,-0.4182,-0.3518,0.07306,0.0,-0.0608,0.3586,-0.3342,-0.344,-0.1064,0.08075,0.03992,-1.184,-0.461,-0.774,1.198,0.619,0.0,-0.4568,-0.4575,0.0,0.0,-0.4585,0.0,-0.4172,0.4812,0.0,0.0,0.0,0.0,-0.003355,0.0,-1.0,-0.5,-0.1048,-0.167,0.0,2.0,0.0,-1.0,0.0,0.0,0.0,-0.0354
-0.459,-0.456,-0.4592,-0.01852,-0.08875,0.01168,0.01778,-0.792,-0.1647,0.422,-0.0132,0.4917,0.4285,-0.828,-1.0,0.0,-0.4226,-0.3447,0.07306,0.0,-0.05884,-1.082,-0.3354,-0.3457,-0.1495,0.0899,0.0431,0.0,-0.4617,-1.186,0.0,0.609,0.0,-0.4568,-0.4575,0.0,0.0,-0.4583,0.0,-0.4172,0.2832,0.0,0.0,0.0,0.0,0.0,-1.0,-1.0,-1.0,-0.1105,-0.1826,0.0,0.0,0.0,-1.0,0.0,0.0,0.0,0.0
-0.459,-0.4558,-0.459,-0.4236,0.3171,0.01168,0.01778,-0.772,0.254,0.5586,-0.01168,-4.137,0.4285,-0.8184,0.0,0.0,-0.531,-0.46,0.1731,0.0,-0.05685,0.026,-0.3374,-0.3472,0.2913,0.0961,0.0463,1.019,-0.4614,0.0,-0.7744,1.198,0.0,-0.4565,-0.4573,0.0,0.0,-0.4583,0.0,-0.4153,0.538,0.0,0.0,0.0,0.0,0.010666,-1.0,-0.5,-1.0,-0.4622,0.263,1.0,0.0,0.0,-1.0,0.0,0.0,0.0,0.1162
-0.4587,-0.4558,-0.459,-0.4602,0.354,-0.1385,0.01778,-0.7524,0.2935,0.5845,-0.010124,0.2664,0.4285,-0.808,0.0,0.0,-0.5493,-0.4822,0.1931,0.0,-0.0549,-0.551,-0.3406,-0.3481,0.3735,0.0986,0.05746,0.1982,-0.461,1.0205,-1.186,0.0,0.0,-0.4565,-0.4573,0.0,0.0,-0.4583,0.0,-0.415,0.538,0.0,0.0,0.0,0.0,0.0005074,0.0,0.0,-1.0,-0.4885,0.309,2.0,0.0,0.0,-1.0,0.0,0.0,0.0,0.005383
-0.4587,-0.4556,-0.4587,-0.4927,0.3865,-0.1385,0.01778,-0.7593,0.3257,0.6094,-0.00844,0.2281,0.4285,-0.798,0.0,0.0,-0.569,-0.502,0.2131,0.0,-0.05295,-0.8384,-0.3435,-0.3481,0.374,0.1179,0.07025,0.1973,-0.4597,0.1986,0.0,-0.7744,0.0,-0.4568,-0.457,0.0,0.0,-0.4583,0.0,-0.4146,0.591,0.0,0.0,0.0,0.0,0.001655,1.0,0.5,-0.5,-0.511,0.3508,3.0,0.0,0.0,-1.0,0.0,0.0,0.0,0.01746
-0.4587,-0.4556,-0.4587,0.2148,-0.3218,-0.1385,0.01778,-0.511,-0.4316,0.3867,-0.00829,-2.059,0.2856,-0.788,-1.0,0.0,-0.3743,-0.334,0.05307,0.0,-0.051,1.255,-0.3486,-0.3486,-0.3818,0.1197,0.0367,-1.569,-0.4614,0.1976,1.0205,-1.186,0.6187,-0.457,-0.457,0.0,0.0,-0.4583,0.0,-0.4177,-0.0157,0.0,0.0,0.0,0.0,-0.076,1.0,0.0,-0.5,0.2566,-0.264,0.0,1.0,0.0,-1.0,0.0,0.0,0.0,-0.7974
-0.4587,-0.4556,-0.4587,-0.05594,-0.05038,-0.1385,0.2449,-0.4016,-0.1769,0.4683,-0.007595,-0.6226,0.1428,-0.778,-1.0,0.0,-0.4336,-0.4116,0.1131,0.0,-0.049,0.3398,-0.3545,-0.3499,-0.091,0.11743,-0.014366,0.6143,-0.464,-1.572,0.1986,0.0,0.609,-0.4573,-0.4568,0.0,0.0,-0.4583,0.0,-0.4165,0.1405,0.0,0.0,0.0,0.0,0.01602,2.0,0.0,0.0,0.02303,0.03595,1.0,0.0,0.0,-1.0,0.0,0.0,0.0,0.1754
-0.4587,-0.4556,-0.4587,0.03525,-0.1422,-0.1385,0.2449,-0.4468,-0.2903,0.4385,-0.007126,1.165,0.0,-0.7676,-1.0,0.0,-0.4126,-0.3833,0.0931,0.0,-0.04706,-1.082,-0.3545,-0.3516,-0.211,0.1231,-0.11334,-0.2014,-0.4656,0.615,0.1976,1.0205,1.198,-0.457,-0.4568,0.0,0.0,-0.458,0.0,-0.417,0.08307,0.0,0.0,0.0,0.0,-0.0007668,1.0,-0.5,0.0,0.1223,-0.04337,0.0,1.0,0.0,-1.0,0.0,0.0,0.0,-0.00826
-0.4587,-0.4556,-0.4587,0.03433,-0.1416,-0.1385,0.2449,-0.4468,-0.31,0.436,-0.00672,0.2195,0.0,-0.758,-1.0,0.0,-0.4104,-0.381,0.0931,0.0,-0.0451,-0.82,-0.355,-0.3533,-0.2236,0.1259,-0.1277,0.0,-0.4663,-0.2018,-1.572,0.1986,0.0,-0.457,-0.4565,0.0,0.0,-0.458,0.0,-0.417,0.08307,0.0,0.0,0.0,0.0,0.0,0.0,-0.5,0.0,0.09106,-0.0751,0.0,0.0,0.0,-1.0,0.0,0.0,0.0,0.0
-0.4587,-0.4556,-0.4587,-0.2141,0.10736,-0.1385,0.2449,-0.419,-0.04974,0.515,-0.006435,-1.006,0.0,-0.7476,0.0,0.0,-0.4724,-0.4495,0.1531,0.0,-0.04315,0.0336,-0.3547,-0.3557,0.03046,0.1313,-0.07825,0.608,-0.4663,0.0,0.6157,0.1976,-0.774,-0.457,-0.4565,0.0,0.0,-0.458,0.0,-0.4158,0.08307,0.0,0.0,0.0,0.0,0.02106,0.0,0.0,0.0,-0.1514,0.1698,1.0,0.0,0.0,-1.0,0.0,0.0,0.0,0.2281
-0.4585,-0.4556,-0.4587,-0.1912,0.08435,-0.1385,0.2449,-0.419,-0.04974,0.5107,-0.00686,0.1263,0.0,-0.7373,0.0,0.0,-0.4688,-0.4458,0.1531,0.0,-0.04117,-0.5415,-0.3555,-0.3586,0.02252,0.1329,0.014366,0.0,-0.4663,0.609,-0.2019,-1.572,-1.186,-0.4573,-0.4565,0.0,0.0,-0.458,0.0,-0.4158,-0.07355,0.0,0.0,0.0,0.0,0.0,0.0,0.0,-0.5,-0.1897,0.0826,0.0,0.0,0.0,-1.0,0.0,0.0,0.0,0.0
-0.4585,-0.4556,-0.4587,-0.00605,-0.1019,-0.1385,0.2449,-0.536,-0.1835,0.452,-0.00894,-15.28,-0.1428,-0.727,-1.0,0.0,-0.4294,-0.3882,0.1131,0.0,-0.0392,-0.8228,-0.3584,-0.3625,-0.1516,0.1304,0.02075,-0.3987,-0.4663,0.0,0.0,0.6157,0.0,-0.4573,-0.4563,0.0,0.0,-0.4578,0.0,-0.4167,-0.577,0.0,0.0,0.0,0.0,-0.0006227,-1.0,0.0,-1.0,0.0105,-0.0799,0.0,1.0,0.0,-1.0,0.0,0.0,0.0,-0.00664
-0.4585,-0.4556,-0.4587,-0.003363,-0.10547,-0.1385,0.2449,-0.59,-0.1302,0.4502,-0.010826,-0.336,-0.2856,-0.7173,-1.0,0.0,-0.432,-0.383,0.1131,0.0,-0.03726,-0.532,-0.361,-0.3667,-0.1091,0.1213,-0.05588,0.0,-0.4663,-0.3994,0.609,-0.2019,1.0205,-0.4573,-0.4563,0.0,0.0,-0.4578,0.0,-0.4167,-0.577,0.0,0.0,0.0,0.0,0.0,-1.0,-0.5,-1.0,-0.02704,-0.1261,0.0,0.0,0.0,-1.0,0.0,0.0,0.0,0.0
-0.4585,-0.4553,-0.4587,-0.0836,-0.02548,-0.1385,0.2449,-0.732,-0.0161,0.476,-0.01166,-1.578,-0.2856,-0.707,0.0,0.0,-0.4624,-0.3945,0.1332,0.0,-0.0353,-1.082,-0.3625,-0.368,-0.004707,0.11896,-0.0766,0.2014,-0.4663,0.0,0.0,0.0,0.1986,-0.4573,-0.4563,0.0,0.0,-0.4578,0.0,-0.4163,-0.2808,0.0,0.0,0.0,0.0,0.0001673,0.0,-0.5,-0.5,-0.1552,-0.1004,1.0,0.0,0.0,-1.0,0.0,0.0,0.0,0.001802
-0.4585,-0.4553,-0.4585,-0.3167,0.208,-0.1385,0.2449,-0.805,0.2251,0.5557,-0.01066,6.727,-0.1428,-0.697,0.0,0.0,-0.5303,-0.4553,0.1931,0.0,-0.03333,-0.551,-0.3625,-0.3691,0.2732,0.11945,-0.0974,0.601,-0.4663,0.2018,-0.3994,0.609,0.1976,-0.457,-0.4563,0.0,0.0,-0.4578,0.0,-0.415,0.385,0.0,0.0,0.0,0.0,0.000692,0.0,-0.5,0.0,-0.351,0.1627,2.0,0.0,0.0,-1.0,1.0,0.0,2.15,0.007416
-0.4583,-0.4553,-0.4585,-0.52,0.4124,-0.1385,0.2449,-0.7725,0.4446,0.635,-0.009056,0.986,0.0,-0.687,0.0,0.0,-0.589,-0.521,0.2532,0.0,-0.03137,-0.844,-0.3625,-0.3696,0.534,0.1234,0.02873,0.592,-0.4663,0.602,0.0,0.0,-1.572,-0.4568,-0.4563,0.0,0.0,-0.4575,0.0,-0.4138,0.548,0.0,0.0,0.0,0.0,0.003925,1.0,0.0,0.5,-0.569,0.3435,3.0,0.0,0.0,-1.0,0.0,0.0,0.0,0.0414
-0.4583,-0.455,-0.4583,-0.39,0.282,-0.1385,0.2449,-0.766,0.3306,0.603,-0.008804,-0.1246,0.0,-0.677,0.0,0.0,-0.5645,-0.496,0.2332,0.0,-0.02942,0.003656,-0.3625,-0.3696,0.4316,0.1254,-0.003193,-0.1942,-0.4663,0.593,0.2019,-0.3994,0.6157,-0.4568,-0.456,0.0,0.0,-0.4575,0.0,-0.4143,0.1642,0.0,0.0,0.0,0.0,-0.0007496,1.0,-0.5,0.0,-0.4434,0.2133,0.0,1.0,0.0,-1.0,0.0,0.0,0.0,-0.007786
-0.458,-0.455,-0.4583,-0.506,0.399,-0.6514,0.2449,-0.7793,0.4897,0.6523,-0.00847,0.58,0.0,-0.6665,0.0,0.0,-0.6025,-0.534,0.2732,0.0,-0.02745,-0.5684,-0.3625,-0.3696,0.6123,0.1265,0.02235,0.3904,-0.4663,-0.1945,0.6025,0.0,-0.2019,-0.4565,-0.456,0.0,0.0,-0.4575,0.0,-0.4136,0.2322,0.0,0.0,0.0,0.0,0.001291,2.0,0.0,0.0,-0.5474,0.3386,1.0,0.0,0.0,-1.0,0.0,0.0,0.0,0.01348
-0.458,-0.4548,-0.458,-0.2986,0.1912,-0.6514,0.2449,-0.7397,0.2966,0.5903,-0.0089,-0.264,0.0,-0.6567,0.0,0.0,-0.5527,-0.4878,0.2332,0.0,-0.0255,-0.5596,-0.3625,-0.3696,0.4314,0.1254,0.0367,-0.3862,-0.4663,0.391,0.593,0.2019,0.0,-0.4563,-0.456,0.0,0.0,-0.4575,0.0,-0.4143,0.0002515,0.0,0.0,0.0,0.0,-0.001257,1.0,0.0,-0.5,-0.406,0.0691,0.0,1.0,0.0,-1.0,0.0,0.0,0.0,-0.012985
-0.458,-0.4548,-0.458,-0.1885,0.07983,-0.6514,0.2449,-0.943,0.1494,0.555,-0.007866,-0.3333,0.1428,-0.6465,0.0,0.0,-0.5396,-0.4453,0.2131,0.0,-0.02353,-1.082,-0.3625,-0.3696,0.3171,0.1298,0.0,-0.1952,-0.4663,-0.387,-0.1946,0.6025,0.609,-0.456,-0.4558,0.0,0.0,-0.4575,0.0,-0.4148,0.7046,0.0,0.0,0.0,0.0,-2.307e-05,0.0,-0.5,-0.5,-0.3193,-0.0627,0.0,2.0,0.0,-1.0,0.0,1.0,-2.05,-0.0002408
-0.458,-0.4548,-0.458,0.415,-0.525,-0.6514,0.2455,-0.8735,-0.4883,0.3562,-0.008995,-3.291,0.1428,-0.636,-1.0,0.0,-0.373,-0.2815,0.07306,0.0,-0.02158,0.0649,-0.3625,-0.3696,-0.3486,0.1328,0.004787,-1.373,-0.4663,-0.1956,0.391,0.593,0.0,-0.4563,-0.4558,0.0,0.0,-0.4575,0.0,-0.4175,-0.2382,0.0,0.0,0.0,0.0,-0.02498,-1.0,-0.5,-1.0,0.323,-0.6006,0.0,3.0,0.0,-1.0,0.0,1.0,-3.664,-0.2622
-0.458,-0.455,-0.4583,0.2925,-0.4014,-0.6514,0.2455,-0.772,-0.3953,0.376,-0.00973,-0.1112,0.1428,-0.6265,-1.0,0.0,-0.383,-0.3064,0.0931,0.0,-0.0196,-0.2354,-0.3625,-0.3696,-0.2585,0.1334,0.03033,0.2036,-0.4663,-1.376,-0.3872,-0.1946,-0.3994,-0.4563,-0.4558,0.0,0.0,-0.4575,0.0,-0.417,-0.07355,0.0,0.0,0.0,0.0,0.000686,0.0,0.0,-0.5,0.2151,-0.4668,1.0,0.0,0.0,-1.0,0.0,0.0,0.0,0.007477
-0.4583,-0.455,-0.4583,0.527,-0.636,-0.6514,0.2455,-0.723,-0.655,0.287,-0.011055,0.9717,0.1428,-0.616,-1.0,0.0,-0.304,-0.2308,0.03305,0.0,-0.01765,-0.81,-0.3625,-0.3696,-0.581,0.143,0.02873,-0.608,-0.4663,0.204,-0.1956,0.391,0.0,-0.4568,-0.4558,0.0,0.0,-0.4575,0.0,-0.4182,-0.295,0.0,0.0,0.0,0.0,-0.000761,-1.0,0.0,-0.5,0.4424,-0.699,0.0,1.0,0.0,-1.0,0.0,1.0,-3.703,-0.00825
-0.4585,-0.4553,-0.4585,0.931,-1.04,-0.6514,0.2455,-0.6577,-1.052,0.1453,-0.01397,0.857,0.0,-0.606,-1.0,0.0,-0.1729,-0.1035,-0.067,0.0,-0.01569,-0.1825,-0.3625,-0.3696,-0.9863,0.1295,0.006386,-1.029,-0.4653,-0.609,-1.376,-0.3872,0.2019,-0.4573,-0.4558,0.0,0.0,-0.4578,0.0,-0.4202,-0.833,0.0,0.0,0.0,0.0,-0.01,-1.0,-0.5,-1.0,0.887,-1.043,0.0,2.0,0.0,-1.0,0.0,1.0,-3.805,-0.11017
-0.4585,-0.4553,-0.4585,0.3965,-0.5034,-0.661,0.2455,-0.6133,-0.545,0.2761,-0.01585,-0.4348,-0.1428,-0.596,-1.0,0.0,-0.2869,-0.2286,0.03305,0.0,-0.013725,0.3782,-0.3625,-0.3696,-0.4263,0.10895,-0.05746,1.059,-0.465,-1.031,0.2041,-0.1956,0.6025,-0.4575,-0.4558,0.0,0.0,-0.4578,0.0,-0.4182,-0.4302,0.0,0.0,0.0,0.0,0.006546,0.0,-0.5,-0.5,0.4001,-0.4783,1.0,0.0,0.0,-1.0,0.0,0.0,0.0,0.0741
-0.4587,-0.4556,-0.4587,0.81,-0.9165,-0.661,0.2455,-0.4312,-0.9565,0.1346,-0.01831,1.055,-0.1428,-0.586,-1.0,0.0,-0.1477,-0.10944,-0.067,0.0,-0.011765,0.734,-0.3625,-0.3696,-0.7725,0.08185,-0.11816,-1.029,-0.4617,1.061,-0.609,-1.376,0.593,-0.458,-0.456,0.0,0.0,-0.458,0.0,-0.4202,-0.5674,0.0,0.0,0.0,0.0,-0.01459,0.0,-1.0,-0.5,0.856,-0.8286,0.0,1.0,0.0,-1.0,0.0,0.0,0.0,-0.1606
-0.4587,-0.4558,-0.459,0.554,-0.66,-0.661,0.2455,-0.4773,-0.723,0.1836,-0.0204,-0.1595,-0.1428,-0.5757,-1.0,0.0,-0.1954,-0.1527,-0.027,0.0,-0.0098,-1.082,-0.3623,-0.3696,-0.5723,0.0794,-0.1277,0.4233,-0.4597,-1.031,-1.031,0.2041,-0.1946,-0.4585,-0.456,0.0,0.0,-0.458,0.0,-0.4194,-0.439,0.0,0.0,0.0,0.0,0.0001845,0.0,-0.5,0.0,0.6187,-0.5635,1.0,0.0,0.0,-1.0,0.0,0.0,0.0,0.00209
-0.459,-0.4558,-0.459,0.2407,-0.3455,-0.661,0.2455,-0.448,-0.4072,0.259,-0.02211,-0.396,-0.2856,-0.5654,-1.0,0.0,-0.2607,-0.2249,0.03305,0.0,-0.00784,-0.513,-0.3599,-0.3696,-0.2808,0.07764,-0.1804,0.628,-0.459,0.424,1.061,-0.609,0.391,-0.4585,-0.456,0.0,0.0,-0.458,0.0,-0.4182,-0.3223,0.0,0.0,0.0,0.0,0.000813,1.0,-0.5,0.0,0.313,-0.2537,2.0,0.0,0.0,-1.0,0.0,0.0,0.0,0.0091
-0.4587,-0.4558,-0.459,-0.2808,0.1772,-0.207,0.2455,-0.4456,0.1732,0.4148,-0.02327,-1.698,-0.2856,-0.5557,0.0,0.0,-0.393,-0.363,0.1531,0.0,-0.005882,0.3213,-0.358,-0.3696,0.289,0.077,-0.1676,1.235,-0.459,0.629,-1.031,-1.031,-0.387,-0.4585,-0.456,0.0,0.0,-0.458,0.0,-0.416,-0.1666,0.0,0.0,0.0,0.0,0.002699,2.0,0.0,0.0,-0.1663,0.292,3.0,0.0,0.0,-1.0,0.0,0.0,0.0,0.02972
-0.4585,-0.4556,-0.4587,-0.722,0.62,0.4019,0.2455,-0.3142,0.7334,0.5684,-0.02393,2.816,-0.2856,-0.5454,0.0,0.0,-0.507,-0.5005,0.2732,0.0,-0.00392,1.383,-0.358,-0.3696,0.7065,0.1073,-0.1581,1.196,-0.4568,1.237,0.4243,1.061,-0.1956,-0.458,-0.456,0.0,0.0,-0.458,0.0,-0.4136,-0.02986,0.0,0.0,0.0,0.0,0.02702,2.0,0.5,0.0,-0.5513,0.7764,4.0,0.0,-0.5,-1.0,0.0,0.0,0.0,0.288
-0.4583,-0.4553,-0.4585,-1.022,0.923,0.8936,0.2455,-0.3074,1.155,0.694,-0.02338,0.7153,-0.2856,-0.535,0.0,0.0,-0.6016,-0.6,0.3733,0.0,-0.00196,0.2258,-0.3572,-0.3696,1.017,0.1389,-0.0415,0.966,-0.452,1.198,0.6294,-1.031,-1.376,-0.4573,-0.456,0.0,0.0,-0.4578,0.0,-0.4116,0.2091,0.0,0.0,0.0,0.0,0.01519,3.0,1.0,0.5,-0.8213,1.1,5.0,0.0,0.0,-1.0,0.0,0.0,0.0,0.157
-0.4583,-0.455,-0.4583,-0.547,0.4465,0.8936,0.2455,-0.1594,0.684,0.551,-0.02412,-0.3025,-0.2856,-0.5254,0.0,0.0,-0.4824,-0.497,0.2732,0.0,0.0,0.5464,-0.356,-0.3696,0.5024,0.1493,-0.03354,-0.9414,-0.4507,0.9673,1.238,0.4243,0.2041,-0.457,-0.456,0.0,0.0,-0.4578,0.0,-0.4136,-0.07355,0.0,0.0,0.0,0.0,-0.00822,2.0,0.5,0.0,-0.3274,0.662,0.0,1.0,0.0,-1.0,0.0,0.0,0.0,-0.08276
-0.458,-0.4548,-0.4583,-0.492,0.3916,0.8936,0.2455,-0.1594,0.6704,0.543,-0.02443,0.10547,-0.2856,-0.515,0.0,0.0,-0.4766,-0.4907,0.2732,0.0,0.00196,-0.5684,-0.3545,-0.3696,0.479,0.1542,0.02873,0.0,-0.4495,-0.9434,1.198,0.6294,-0.609,-0.4565,-0.4558,0.0,0.0,-0.4578,0.0,-0.4136,0.00572,0.0,0.0,0.0,0.0,0.0,1.0,0.5,0.0,-0.2847,0.596,0.0,0.0,0.0,-1.0,0.0,0.0,0.0,0.0
-0.4578,-0.4548,-0.458,-0.595,0.496,0.8936,0.2455,-0.1274,0.823,0.589,-0.02412,0.3586,-0.2856,-0.505,0.0,0.0,-0.51,-0.5303,0.3132,0.0,0.00392,-0.5767,-0.353,-0.3696,0.644,0.1583,0.1277,0.3862,-0.4478,0.0,0.968,1.238,-1.031,-0.4558,-0.4558,0.0,0.0,-0.4575,0.0,-0.4128,0.12103,0.0,0.0,0.0,0.0,0.001395,1.0,1.0,0.5,-0.4368,0.6445,1.0,0.0,0.0,-1.0,0.0,0.0,0.0,0.01442
-0.4578,-0.4546,-0.4578,-0.3818,0.2817,0.8936,0.2455,-0.2368,0.566,0.527,-0.02274,-0.1965,-0.1428,-0.4949,0.0,0.0,-0.4692,-0.4722,0.2732,0.0,0.005882,-0.8467,-0.3508,-0.3696,0.4092,0.1688,0.07825,-0.3823,-0.4468,0.387,-0.9434,1.198,1.061,-0.4556,-0.4558,0.0,0.0,-0.4575,0.0,-0.4136,0.3545,0.0,0.0,0.0,0.0,-0.0002882,0.0,0.5,0.5,-0.219,0.4436,0.0,1.0,0.0,-1.0,0.0,0.0,0.0,-0.002949
-0.4578,-0.4546,-0.4578,-0.3428,0.2423,0.8936,0.2455,-0.2886,0.5034,0.519,-0.02155,0.0162,0.0,-0.4849,0.0,0.0,-0.4666,-0.462,0.2732,0.0,0.00784,-0.5684,-0.3486,-0.3687,0.3887,0.1732,0.1772,0.0,-0.4465,-0.383,0.0,0.968,-1.031,-0.4553,-0.4558,0.0,0.0,-0.4575,0.0,-0.4136,0.3196,0.0,0.0,0.0,0.0,0.0,-1.0,0.5,0.0,-0.2108,0.373,0.0,0.0,0.0,-1.0,0.0,0.0,0.0,0.0
-0.4575,-0.4543,-0.4575,-0.762,0.6636,0.8936,0.2455,-0.241,0.9365,0.671,-0.01851,0.9795,0.1428,-0.4749,0.0,0.0,-0.58,-0.5874,0.3933,0.0,0.0098,0.488,-0.3462,-0.3672,0.8916,0.1832,0.1724,1.159,-0.4434,0.0,0.3872,-0.9434,0.4243,-0.455,-0.4556,0.0,0.0,-0.4575,0.0,-0.4114,0.6675,0.0,0.0,0.0,0.0,0.0055,0.0,0.5,0.5,-0.6143,0.7935,1.0,0.0,0.0,-1.0,0.0,0.0,0.0,0.05682
-0.4573,-0.4543,-0.4575,-0.2292,0.1289,0.8936,0.2455,-0.1594,0.2659,0.502,-0.01566,-0.6187,0.2856,-0.4646,0.0,0.0,-0.4438,-0.4568,0.2732,0.0,0.011765,0.5464,-0.3413,-0.3643,0.1998,0.2134,0.1581,-1.124,-0.4434,1.161,-0.383,0.0,0.6294,-0.4553,-0.4556,0.0,0.0,-0.4575,0.0,-0.4136,0.613,0.0,0.0,0.0,0.0,-0.00443,0.0,0.0,0.5,-0.08356,0.279,0.0,1.0,0.0,-1.0,0.0,0.0,0.0,-0.04437
-0.4575,-0.4543,-0.4575,0.2832,-0.3845,0.8936,0.0814,-0.01926,-0.3254,0.3345,-0.01506,-1.897,0.2856,-0.4546,-1.0,0.0,-0.2966,-0.323,0.1531,0.0,0.013725,0.8965,-0.3367,-0.361,-0.4053,0.2264,0.0814,-1.159,-0.4436,-1.126,0.0,0.3872,1.237,-0.4556,-0.4556,0.0,0.0,-0.4575,0.0,-0.416,0.1642,0.0,0.0,0.0,0.0,-0.006123,-1.0,-0.5,0.0,0.4287,-0.2131,0.0,2.0,0.0,-1.0,0.0,0.0,0.0,-0.0633
-0.4575,-0.4546,-0.4578,0.6006,-0.704,0.8936,-0.317,-0.05692,-0.7373,0.2217,-0.01415,1.813,0.2856,-0.4443,-1.0,0.0,-0.2009,-0.2181,0.07306,0.0,0.01569,-0.229,-0.3325,-0.357,-0.905,0.2578,-0.014366,-0.7974,-0.4434,-1.161,1.161,-0.383,1.198,-0.4558,-0.4556,0.0,0.0,-0.4575,0.0,-0.4175,0.2091,0.0,0.0,0.0,0.0,-0.00683,-1.0,-1.0,0.0,0.7627,-0.502,0.0,3.0,0.0,-1.0,0.0,0.0,0.0,-0.0728
-0.4578,-0.4546,-0.458,0.903,-1.007,0.8936,-0.724,0.07074,-1.11,0.11,-0.01445,0.73,0.2856,-0.4343,-1.0,0.0,-0.0906,-0.1213,-0.00698,0.0,0.01765,0.09753,-0.332,-0.354,-1.216,0.2462,-0.11017,-0.8145,-0.4421,-0.799,-1.126,0.0,0.968,-0.4563,-0.4556,0.0,0.0,-0.4575,0.0,-0.4192,-0.03464,0.0,0.0,0.0,0.0,-0.004128,-1.0,-1.5,-0.5,1.072,-0.784,0.0,4.0,0.0,-0.5,0.0,0.0,0.0,-0.04498
-0.458,-0.4548,-0.4583,1.003,-1.106,0.8936,-0.932,0.0664,-1.269,0.05402,-0.0156,0.2927,0.2856,-0.4243,-1.0,0.0,-0.0381,-0.0659,-0.047,0.0,0.0196,-1.082,-0.335,-0.3525,-1.345,0.2338,-0.06067,-0.4163,-0.4397,-0.816,-1.161,1.161,-0.9434,-0.4568,-0.4558,0.0,0.0,-0.4578,0.0,-0.42,-0.232,0.0,0.0,0.0,0.0,-0.002075,-2.0,-1.5,-1.0,1.131,-0.924,0.0,5.0,0.0,0.0,0.0,1.0,-3.783,-0.02312
-0.4583,-0.455,-0.4583,0.8193,-0.9214,0.8936,-0.932,-0.0013895,-1.122,0.07965,-0.01765,-0.007515,0.1428,-0.414,-1.0,0.0,-0.067,-0.0865,-0.027,0.0,0.02158,-0.1962,-0.341,-0.3516,-1.188,0.2185,-0.0862,0.2106,-0.4387,-0.417,-0.799,-1.126,0.0,-0.4573,-0.4558,0.0,0.0,-0.4578,0.0,-0.4197,-0.4666,0.0,0.0,0.0,0.0,0.001459,-1.0,-1.0,-1.0,0.9,-0.7964,1.0,0.0,0.0,0.0,0.0,0.0,0.0,0.01643
-0.4585,-0.4553,-0.4585,1.021,-1.123,0.8936,-0.932,-0.1658,-1.288,-0.000955,-0.02164,0.2983,0.0,-0.404,-1.0,0.0,-0.0008264,0.005905,-0.08704,0.0,0.02353,-0.79,-0.3462,-0.3516,-1.376,0.1981,-0.1421,-0.628,-0.4382,0.2109,-0.8164,-1.161,0.387,-0.458,-0.4558,0.0,0.0,-0.4578,0.0,-0.4207,-0.911,0.0,0.0,0.0,0.0,-0.00211,-1.0,-1.5,-1.5,1.078,-1.015,0.0,1.0,0.0,0.0,0.0,0.0,0.0,-0.02364
-0.4587,-0.4556,-0.4587,0.8335,-0.936,0.8936,-0.932,-0.3462,-1.058,0.02513,-0.02646,-0.07965,-0.1428,-0.394,-1.0,0.0,-0.03845,-0.00768,-0.067,0.0,0.0255,-1.082,-0.3477,-0.3523,-1.114,0.1588,-0.1421,0.2129,-0.4363,-0.629,-0.4172,-0.799,-0.383,-0.4585,-0.456,0.0,0.0,-0.4578,0.0,-0.4204,-1.194,0.0,1.0,0.0,0.0,0.0001211,0.0,-1.0,-1.5,0.855,-0.8735,1.0,0.0,0.0,0.0,0.0,0.0,0.0,0.001379
-0.459,-0.4558,-0.4592,1.629,-1.73,0.8936,-0.932,-0.1658,-1.742,-0.2148,-0.03214,0.88,-0.2856,-0.394,-1.0,-1.0,0.2181,0.2341,-0.2472,0.0,0.02745,1.492,-0.339,-0.352,-1.599,0.0765,-0.1692,-1.905,-0.4307,0.2133,0.2109,-0.8164,0.0,-0.4592,-0.456,0.0,0.0,-0.4578,0.0,-0.4238,-1.283,0.0,1.0,0.0,0.0,-0.02248,0.0,-1.0,-1.5,1.732,-1.547,0.0,1.0,0.0,0.0,0.0,0.0,0.0,-0.2544
-0.4592,-0.4563,-0.4595,1.477,-1.577,0.8936,-0.932,-0.1957,-1.582,-0.2142,-0.0377,0.0216,-0.4285,-0.394,-1.0,-1.0,0.2153,0.2355,-0.2472,0.0,0.02942,-0.7607,-0.3281,-0.35,-1.448,0.04205,-0.3064,0.0,-0.4248,-1.909,-0.6294,-0.4172,1.161,-0.4597,-0.4563,0.0,0.0,-0.458,0.0,-0.4238,-1.283,0.0,1.0,0.0,0.0,0.0,0.0,-1.5,-1.5,1.565,-1.417,0.0,0.0,0.0,0.0,0.0,0.0,0.0,0.0
-0.4595,-0.4565,-0.4597,1.142,-1.241,0.8936,-0.932,-0.2468,-1.227,-0.1621,-0.04346,-0.131,-0.5713,-0.3838,-1.0,0.0,0.1567,0.1816,-0.2072,0.0,0.03137,-1.082,-0.3176,-0.3474,-1.177,0.02408,-0.2617,0.446,-0.4204,0.0,0.2134,0.2109,-1.126,-0.46,-0.4565,0.0,0.0,-0.458,0.0,-0.423,-1.283,0.0,1.0,0.0,0.0,0.000415,0.0,-1.0,-1.5,1.24,-1.083,1.0,0.0,0.0,0.0,0.0,0.0,0.0,0.004955
-0.46,-0.4568,-0.46,1.435,-1.533,0.8936,-0.932,-0.113,-1.434,-0.2686,-0.0495,0.3223,-0.7144,-0.3838,-1.0,-1.0,0.28,0.291,-0.287,0.0,0.03333,0.2241,-0.305,-0.342,-1.368,-0.01921,-0.2043,-0.882,-0.414,0.4468,-1.909,-0.6294,-1.161,-0.4604,-0.4568,0.0,0.0,-0.4583,0.0,-0.4246,-1.322,0.0,1.0,0.0,0.0,-0.00863,0.0,-1.0,-1.5,1.575,-1.318,0.0,1.0,0.0,0.0,0.0,0.0,0.0,-0.1017
-0.4602,-0.457,-0.4602,0.9053,-1.004,0.8936,-0.932,-0.129,-0.8853,-0.163,-0.0548,-0.313,-0.857,-0.3738,-1.0,0.0,0.1655,0.1741,-0.2072,0.0,0.0353,-0.1322,-0.2937,-0.3357,-0.887,-0.03918,-0.1757,0.903,-0.4126,-0.8833,0.0,0.2134,-0.799,-0.4607,-0.4568,0.0,0.0,-0.4585,0.0,-0.423,-1.062,0.0,1.0,0.0,0.0,0.002813,0.0,-0.5,-1.0,1.038,-0.821,1.0,0.0,0.0,0.0,0.0,0.0,0.0,0.03397
-0.4602,-0.4573,-0.4604,1.015,-1.117,-0.7812,-0.932,-0.2554,-0.8677,-0.2162,-0.06174,0.1028,-1.0,-0.3738,-1.0,-1.0,0.2135,0.242,-0.2472,0.0,0.03726,-0.7607,-0.283,-0.3286,-0.952,-0.06714,-0.1342,-0.441,-0.4133,0.905,0.447,-1.909,-0.8164,-0.461,-0.457,0.0,0.0,-0.459,0.0,-0.4238,-1.5,0.0,1.0,0.0,0.0,-0.0003,0.0,-0.5,-1.5,1.1045,-0.9746,0.0,1.0,0.0,0.0,0.0,0.0,0.0,-0.003536
-0.4604,-0.4573,-0.4607,0.8228,-0.9272,-0.7812,-0.932,-0.3547,-0.5957,-0.19,-0.0672,-0.2435,-1.143,-0.3635,-1.0,0.0,0.1787,0.2198,-0.2272,0.0,0.0392,-0.12463,-0.2747,-0.3215,-0.7266,-0.09393,-0.12134,0.223,-0.4136,-0.4417,-0.8833,0.0,-0.4172,-0.4612,-0.457,0.0,0.0,-0.4592,0.0,-0.4236,-1.317,0.0,1.0,0.0,0.0,0.0006976,1.0,0.0,-1.0,0.8643,-0.8433,1.0,0.0,0.0,0.0,0.0,0.0,0.0,0.00832
-0.4607,-0.4575,-0.4607,0.7456,-0.8525,-0.7812,-0.932,-0.592,-0.4622,-0.1915,-0.0715,-0.1466,-1.143,-0.3535,-1.0,0.0,0.1642,0.2384,-0.2272,0.0,0.04117,-1.082,-0.2656,-0.3127,-0.4631,-0.1482,-0.1516,0.0,-0.4148,0.2234,0.905,0.447,0.2109,-0.4612,-0.4573,0.0,0.0,-0.4595,0.0,-0.4236,-1.173,0.0,1.0,0.0,0.0,0.0,0.0,-0.5,-1.0,0.748,-0.8145,0.0,0.0,0.0,0.0,0.0,0.0,0.0,0.0
-0.461,-0.4578,-0.461,0.969,-1.077,-0.7812,-0.932,-0.5957,-0.64,-0.2737,-0.0756,0.611,-1.143,-0.3535,-1.0,-1.0,0.2527,0.3313,-0.287,0.0,0.04315,-0.753,-0.262,-0.3047,-0.6357,-0.1747,-0.11975,-0.665,-0.4172,0.0,-0.4417,-0.8833,-0.6294,-0.4612,-0.4573,0.0,0.0,-0.46,0.0,-0.4246,-1.144,0.0,1.0,0.0,0.0,-0.0012455,0.0,-0.5,-1.0,0.956,-1.046,0.0,1.0,0.0,0.0,0.0,1.0,-2.354,-0.01477
-0.4612,-0.458,-0.4614,1.494,-1.603,-0.7812,-0.932,-0.479,-1.116,-0.4348,-0.08014,1.025,-1.143,-0.3535,-1.0,-1.0,0.4448,0.5146,-0.4072,0.0,0.0451,0.2852,-0.2603,-0.297,-1.121,-0.2006,-0.1516,-1.3545,-0.417,-0.6665,0.2235,0.905,0.2134,-0.4614,-0.4575,0.0,0.0,-0.4602,0.0,-0.427,-1.2,0.0,1.0,0.0,0.0,-0.007404,-1.0,-1.0,-1.0,1.516,-1.512,0.0,2.0,0.0,0.0,0.0,1.0,-4.76,-0.0894
-0.4614,-0.4583,-0.4617,1.044,-1.151,-0.7812,-0.932,-0.354,-0.7007,-0.356,-0.0835,-0.306,-1.143,-0.3535,-1.0,-1.0,0.3613,0.4102,-0.3472,0.0,0.04706,0.9175,-0.2605,-0.2898,-0.641,-0.2355,-0.03513,0.7026,-0.4204,-1.356,0.0,-0.4417,-1.909,-0.4617,-0.4575,0.0,0.0,-0.4604,0.0,-0.4258,-0.8965,0.0,0.0,0.0,0.0,0.00898,0.0,-0.5,-0.5,1.104,-1.04,1.0,0.0,0.0,0.0,0.0,0.0,0.0,0.1125
-0.4617,-0.4585,-0.4617,1.049,-1.156,-0.9116,-0.932,-0.4055,-0.683,-0.3818,-0.08716,0.096,-1.143,-0.3535,-1.0,-1.0,0.388,0.445,-0.3672,0.0,0.049,-1.07,-0.2637,-0.2837,-0.63,-0.2583,-0.0431,-0.2299,-0.4312,0.704,-0.6665,0.2235,0.0,-0.462,-0.4578,0.0,0.0,-0.461,0.0,-0.4263,-1.007,0.0,1.0,0.0,0.0,-0.0008936,-1.0,-0.5,-1.0,1.087,-1.067,0.0,1.0,0.0,0.0,0.0,0.0,0.0,-0.010994
-0.462,-0.4587,-0.462,1.156,-1.266,-0.9116,-0.932,-0.4163,-0.7773,-0.4348,-0.0906,0.2925,-1.143,-0.3535,-1.0,-1.0,0.449,0.5103,-0.4072,0.0,0.051,-0.7285,-0.2698,-0.2793,-0.734,-0.279,-0.0846,-0.4626,-0.439,-0.2303,-1.357,0.0,0.447,-0.4622,-0.4578,0.0,0.0,-0.4614,0.0,-0.427,-0.9746,0.0,1.0,0.0,0.0,-0.0046,-1.0,-1.0,-1.0,1.207,-1.158,0.0,2.0,0.0,0.0,0.0,0.0,0.0,-0.05695
-0.4622,-0.459,-0.4622,0.946,-1.055,-0.9116,-0.932,-0.3953,-0.5557,-0.4075,-0.09393,-0.213,-1.143,-0.3535,-1.0,-1.0,0.4185,0.4753,-0.3872,0.0,0.05295,-0.7324,-0.2773,-0.2769,-0.554,-0.2937,-0.0367,0.2343,-0.4446,-0.4634,0.704,-0.6665,-0.8833,-0.4624,-0.458,0.0,0.0,-0.4617,0.0,-0.4265,-0.9746,0.0,1.0,0.0,0.0,0.002687,0.0,-0.5,-1.0,0.9106,-1.048,1.0,0.0,0.0,0.0,0.0,0.0,0.0,0.03366
-0.4622,-0.4592,-0.4624,0.7573,-0.8667,-0.9116,-0.932,-0.6836,-0.4053,-0.3806,-0.0952,-0.2058,-1.143,-0.3535,-1.0,-1.0,0.3674,0.4631,-0.3672,0.0,0.0549,-1.07,-0.2798,-0.277,-0.3252,-0.3176,-0.1086,0.2328,-0.4495,0.2346,-0.2303,-1.357,0.905,-0.4626,-0.4583,0.0,0.0,-0.462,0.0,-0.426,-0.5015,0.0,0.0,0.0,0.0,0.004925,1.0,-0.5,-0.5,0.7407,-0.847,2.0,0.0,0.0,0.0,0.0,0.0,0.0,0.0613
-0.4624,-0.4592,-0.4624,0.3933,-0.502,-0.7803,-0.932,-0.678,-0.06396,-0.3008,-0.0959,-0.9526,-1.143,-0.3535,-1.0,-1.0,0.2773,0.3684,-0.3071,0.0,0.05685,-0.749,-0.284,-0.2793,0.002178,-0.3193,-0.0894,0.694,-0.4534,0.2332,-0.4636,0.704,-0.4417,-0.4626,-0.4585,0.0,0.0,-0.4622,0.0,-0.425,-0.268,0.0,0.0,0.0,0.0,0.00244,1.0,0.0,0.0,0.4001,-0.4739,3.0,0.0,0.0,0.0,1.0,0.0,2.484,0.03018
-0.4624,-0.4592,-0.4626,0.5527,-0.662,-0.7803,0.2131,-0.631,-0.224,-0.3535,-0.0973,14.13,-1.143,-0.3535,-1.0,-1.0,0.3398,0.427,-0.3472,0.0,0.05884,-0.7407,-0.2905,-0.2832,-0.192,-0.3228,-0.11017,-0.4543,-0.4563,0.6953,0.2346,-0.2303,0.2235,-0.4626,-0.4587,0.0,0.0,-0.4622,0.0,-0.4258,-0.5273,0.0,0.0,0.0,0.0,-0.00566,1.0,-0.5,-0.5,0.533,-0.6553,0.0,1.0,0.0,0.0,0.0,0.0,0.0,-0.0688
-0.4626,-0.4595,-0.4626,0.701,-0.811,-0.7803,0.2131,-0.6753,-0.4,-0.4053,-0.0982,1.284,-1.143,-0.3535,-1.0,-1.0,0.3967,0.4927,-0.3872,0.0,0.0608,-0.7324,-0.2966,-0.289,-0.362,-0.3308,-0.11975,-0.4597,-0.4607,-0.455,0.2333,-0.4636,0.0,-0.4626,-0.459,0.0,0.0,-0.4624,0.0,-0.4265,-0.4187,0.0,0.0,0.0,0.0,-0.002377,1.0,-0.5,-0.5,0.6553,-0.826,0.0,2.0,0.0,0.0,0.0,0.0,0.0,-0.02922
-0.463,-0.4597,-0.463,1.262,-1.372,-0.7803,0.06775,-0.5576,-0.932,-0.5625,-0.1012,1.836,-1.143,-0.3535,-1.0,-1.0,0.5957,0.6836,-0.5073,0.0,0.06274,0.3398,-0.3027,-0.2952,-0.826,-0.365,-0.0846,-1.396,-0.4604,-0.4607,0.6953,0.2346,-0.6665,-0.463,-0.4592,0.0,0.0,-0.4626,0.0,-0.4287,-1.046,0.0,1.0,0.0,0.0,-0.04822,0.0,-0.5,-1.0,1.249,-1.328,0.0,3.0,0.0,0.0,0.0,0.0,0.0,-0.6006
-0.463,-0.4597,-0.4631,0.5244,-0.633,-0.633,0.06775,-0.4575,-0.2336,-0.4016,-0.10254,-0.7534,-1.143,-0.3535,-1.0,-1.0,0.4072,0.4727,-0.3872,0.0,0.0647,0.9463,-0.3105,-0.3022,-0.1708,-0.367,-0.006386,1.45,-0.466,-1.399,-0.455,0.2333,-1.357,-0.463,-0.4595,0.0,0.0,-0.463,0.0,-0.4265,-0.4785,0.0,0.0,0.0,0.0,0.004635,0.0,0.0,-0.5,0.5913,-0.5347,1.0,0.0,0.0,0.0,0.0,0.0,0.0,0.05997
-0.4631,-0.46,-0.4631,0.576,-0.6855,-0.633,0.06775,-0.5415,-0.273,-0.4275,-0.1044,0.3713,-1.143,-0.3535,-1.0,-1.0,0.432,0.5103,-0.4072,0.0,0.06665,-1.066,-0.3198,-0.3066,-0.2615,-0.37,-0.05267,-0.2328,-0.466,1.453,-0.4607,0.6953,0.704,-0.463,-0.4597,0.0,0.0,-0.463,0.0,-0.4268,-0.594,0.0,0.0,0.0,0.0,-0.00010955,-1.0,-0.5,-1.0,0.656,-0.5723,0.0,1.0,0.0,0.0,0.0,0.0,0.0,-0.001364
-0.4631,-0.4602,-0.4634,0.7266,-0.8364,-0.633,0.06775,-0.4907,-0.4062,-0.48,-0.1067,0.8047,-1.143,-0.3535,-1.0,-1.0,0.4983,0.5723,-0.4473,0.0,0.0686,-0.7197,-0.3237,-0.3105,-0.3052,-0.4023,-0.0415,-0.4685,-0.4653,-0.2332,-1.399,-0.455,-0.2303,-0.463,-0.46,0.0,0.0,-0.4631,0.0,-0.4277,-0.6772,0.0,0.0,0.0,0.0,-0.000692,-1.0,-0.5,-1.0,0.7925,-0.731,0.0,2.0,0.0,0.0,0.0,0.0,0.0,-0.00867
-0.4634,-0.4602,-0.4636,0.8667,-0.977,-0.633,0.06775,-0.471,-0.5483,-0.5317,-0.10864,0.574,-1.143,-0.3535,-1.0,-1.0,0.563,0.6367,-0.4873,0.0,0.0706,-0.3645,-0.3271,-0.315,-0.4387,-0.418,-0.01596,-0.4744,-0.4653,-0.4692,1.453,-0.4607,-0.4636,-0.4631,-0.4604,0.0,0.0,-0.4631,0.0,-0.4285,-0.6367,0.0,0.0,0.0,0.0,-0.013275,-1.0,-0.5,-1.0,0.8833,-0.919,0.0,3.0,0.0,0.0,0.0,0.0,0.0,-0.1685
-0.4636,-0.4604,-0.4636,0.7866,-0.897,-0.633,0.06775,-0.5674,-0.518,-0.53,-0.1093,0.05817,-1.143,-0.3535,-1.0,-1.0,0.554,0.641,-0.4873,0.0,0.0726,-0.018,-0.331,-0.319,-0.4258,-0.4204,-0.0383,0.0,-0.4639,-0.475,-0.2333,-1.399,0.2346,-0.4634,-0.4607,0.0,0.0,-0.4634,0.0,-0.4285,-0.341,0.0,0.0,0.0,0.0,0.0,-1.0,-1.0,-1.0,0.771,-0.876,0.0,0.0,0.0,0.0,0.0,0.0,0.0,0.0
-0.4639,-0.4607,-0.4639,1.032,-1.143,-0.633,0.06775,-0.6694,-0.7715,-0.608,-0.1112,0.732,-1.143,-0.3535,-1.0,-1.0,0.646,0.7515,-0.5474,0.0,0.0745,-0.6978,-0.3323,-0.3235,-0.6533,-0.4392,-0.06226,-0.7207,-0.4634,0.0,-0.4692,1.453,0.2332,-0.4636,-0.4607,0.0,0.0,-0.4634,0.0,-0.4294,-0.742,0.0,0.0,0.0,0.0,-0.01582,-2.0,-1.5,-1.5,1.036,-1.091,0.0,1.0,0.0,0.0,0.0,0.0,0.0,-0.2034
-0.4639,-0.461,-0.464,1.045,-1.154,-0.633,0.06775,-0.6934,-0.806,-0.6323,-0.1131,0.1799,-1.143,-0.3535,-1.0,-1.0,0.6763,0.786,-0.5674,0.0,0.0765,-1.049,-0.3333,-0.3284,-0.7227,-0.447,-0.1245,-0.2449,-0.4622,-0.7217,-0.4753,-0.2333,0.6953,-0.4639,-0.461,0.0,0.0,-0.4636,0.0,-0.43,-0.742,0.0,0.0,0.0,0.0,-0.002,-2.0,-1.5,-1.5,1.037,-1.114,0.0,2.0,0.0,0.0,0.0,0.0,0.0,-0.02621
-0.4644,-0.4612,-0.4644,1.279,-1.389,-0.633,0.06775,-0.565,-1.056,-0.7095,-0.1151,0.4934,-1.143,-0.3535,-1.0,-1.0,0.787,0.884,-0.6274,0.0,0.0784,0.41,-0.333,-0.333,-0.9585,-0.465,-0.11334,-0.7397,-0.4604,-0.2454,0.0,-0.4692,-0.455,-0.464,-0.4612,0.0,0.0,-0.4639,0.0,-0.4312,-0.787,0.0,0.0,0.0,0.0,-0.01141,-2.0,-1.5,-1.5,1.293,-1.315,0.0,3.0,0.0,0.0,0.0,0.0,0.0,-0.1505
-0.4646,-0.4617,-0.4648,2.621,-2.176,-0.633,-1.138,-0.0698,-2.098,-1.026,-0.11975,1.412,-1.143,-0.3535,-1.0,-1.0,1.287,1.335,-0.8677,0.0,0.0804,2.938,-0.3298,-0.3345,-1.947,-0.502,-0.10376,-2.37,-0.4482,-0.7407,-0.722,-0.4753,-0.4607,-0.4648,-0.4614,0.0,0.0,-0.4644,0.0,-0.4358,-1.241,0.0,1.0,0.0,0.0,-0.0505,-2.0,-1.5,-2.0,2.754,-2.05,0.0,4.0,0.0,0.0,0.0,0.0,0.0,-0.6797
-0.465,-0.462,-0.4653,2.508,-2.176,-0.633,-1.274,0.1289,-2.098,-1.049,-0.1248,0.08997,-1.143,-0.3535,-1.0,-1.0,1.338,1.358,-0.8877,0.0,0.08234,0.981,-0.3213,-0.333,-1.93,-0.56,-0.0463,-0.2734,-0.4385,-2.373,-0.2454,0.0,-1.399,-0.4648,-0.462,0.0,0.0,-0.4646,0.0,-0.436,-1.338,0.0,1.0,0.0,0.0,-0.004993,-2.0,-1.5,-2.0,2.621,-2.05,0.0,5.0,0.0,0.0,0.0,0.0,0.0,-0.07306
-0.4656,-0.4624,-0.4658,1.889,-1.989,-0.633,-1.274,0.11804,-1.617,-0.965,-0.13,-0.1544,-1.143,-0.3535,-1.0,-1.0,1.204,1.222,-0.8276,0.0,0.0843,0.1515,-0.3145,-0.331,-1.475,-0.581,-0.1724,0.8267,-0.4324,-0.274,-0.741,-0.722,1.453,-0.4648,-0.4622,0.0,0.0,-0.4648,0.0,-0.4348,-1.338,0.0,1.0,0.0,0.0,0.007526,-1.0,-1.5,-2.0,2.033,-1.753,1.0,0.0,0.0,0.0,0.0,0.0,0.0,0.1109
-0.4656,-0.4624,-0.4658,1.231,-1.33,-0.4014,-1.274,0.1626,-1.002,-0.8555,-0.134,-0.3086,-1.143,-0.3535,-1.0,-1.0,1.042,1.046,-0.7476,0.0,0.0863,0.8643,-0.307,-0.3271,-0.789,-0.6216,-0.1915,1.078,-0.4307,0.828,-2.373,-0.2454,-0.2332,-0.4648,-0.4624,0.0,0.0,-0.465,0.0,-0.433,-1.004,0.0,1.0,0.0,0.0,0.02425,0.0,-1.5,-2.0,1.417,-1.076,2.0,0.0,0.0,0.0,0.0,0.0,0.0,0.3496
-0.4656,-0.4624,-0.4658,0.665,-0.7637,0.1322,-1.274,0.2048,-0.4236,-0.7466,-0.1368,-0.548,-1.143,-0.3535,-1.0,-1.0,0.8906,0.882,-0.6675,0.0,0.08826,0.8022,-0.3027,-0.3237,-0.267,-0.6313,-0.1868,1.048,-0.431,1.08,-0.2742,-0.741,-0.4692,-0.4648,-0.4624,0.0,0.0,-0.465,0.0,-0.4316,-0.6978,0.0,0.0,0.0,0.0,0.013145,1.0,-1.0,-1.5,0.8374,-0.5474,3.0,0.0,0.0,0.0,0.0,0.0,0.0,0.1843
-0.4656,-0.4624,-0.4658,1.172,-1.2705,0.1322,-1.274,0.284,-0.905,-0.879,-0.1394,1.57,-1.143,-0.3535,-1.0,-1.0,1.085,1.073,-0.7676,0.0,0.0902,0.8804,-0.2964,-0.3196,-0.658,-0.6655,-0.1724,-1.274,-0.4294,1.05,0.828,-2.373,-0.4753,-0.4648,-0.4626,0.0,0.0,-0.4653,0.0,-0.4336,-0.6655,0.0,0.0,0.0,0.0,-0.01015,1.0,-1.0,-1.5,1.324,-1.054,0.0,1.0,0.0,0.0,0.0,0.0,0.0,-0.1384
-0.4656,-0.4624,-0.4658,0.609,-0.7085,0.1322,-1.274,0.1516,-0.3103,-0.771,-0.1426,-0.6465,-1.143,-0.3535,-1.0,-1.0,0.9204,0.921,-0.6875,0.0,0.09216,0.07697,-0.2935,-0.3167,-0.1488,-0.6714,-0.1948,1.056,-0.43,-1.276,1.08,-0.2742,0.0,-0.4648,-0.463,0.0,0.0,-0.4653,0.0,-0.432,-0.787,0.0,0.0,0.0,0.0,0.01089,2.0,-0.5,-1.5,0.814,-0.4597,1.0,0.0,0.0,0.0,0.0,0.0,0.0,0.1537
-0.4656,-0.4624,-0.4658,0.2302,-0.33,0.1322,-1.274,0.1746,0.1392,-0.6904,-0.145,-1.826,-1.0,-0.3535,0.0,-1.0,0.812,0.8047,-0.6274,0.0,0.0941,-0.3157,-0.2942,-0.3145,0.2092,-0.672,-0.1628,0.77,-0.4321,1.058,1.051,0.828,-0.722,-0.4648,-0.463,0.0,0.0,-0.4653,0.0,-0.4307,-0.574,0.0,0.0,0.0,0.0,0.001747,2.0,0.0,-1.0,0.4556,-0.076,2.0,0.0,0.0,0.0,0.0,0.0,0.0,0.02399
-0.4656,-0.4624,-0.4658,-0.3965,0.2976,0.3264,-1.274,0.218,0.8804,-0.53,-0.1456,4.305,-0.857,-0.3535,0.0,-1.0,0.6074,0.585,-0.5073,0.0,0.09607,-0.009056,-0.2954,-0.3137,0.9263,-0.6724,-0.1532,1.509,-0.436,0.7715,-1.277,1.08,-0.2454,-0.4648,-0.4631,0.0,0.0,-0.4653,0.0,-0.4285,-0.1995,0.0,0.0,0.0,0.0,0.00204,2.0,0.5,-0.5,-0.1139,0.5864,3.0,0.0,0.0,0.0,1.0,0.0,6.164,0.02747
-0.4656,-0.4624,-0.4658,-0.919,0.8228,1.064,-1.274,0.258,1.55,-0.369,-0.1445,0.9136,-0.7144,-0.3535,0.0,-1.0,0.418,0.382,-0.3872,0.0,0.098,0.9463,-0.2964,-0.3132,1.827,-0.701,-0.1006,1.45,-0.437,1.512,1.058,1.051,-0.741,-0.4648,-0.4631,0.0,0.0,-0.4653,0.0,-0.426,0.12103,0.0,0.0,0.0,0.0,0.003944,2.0,1.0,0.0,-0.5635,1.167,4.0,0.0,0.0,0.0,0.0,0.0,0.0,0.051
-0.4656,-0.4624,-0.4658,-0.828,0.7324,1.064,-1.274,0.1959,1.503,-0.3694,-0.1436,0.09454,-0.5713,-0.3535,0.0,-1.0,0.4146,0.3872,-0.3872,0.0,0.1,-0.7324,-0.3022,-0.315,1.645,-0.6733,0.11017,0.0,-0.437,1.453,0.7715,-1.277,-2.373,-0.4648,-0.4631,0.0,0.0,-0.4653,0.0,-0.426,0.12103,0.0,0.0,0.0,0.0,0.0,2.0,1.0,0.0,-0.5127,1.038,0.0,0.0,0.0,0.0,0.0,0.0,0.0,0.0
-0.4656,-0.4624,-0.4658,-0.5605,0.4646,1.064,-1.274,0.1926,1.211,-0.4236,-0.1423,-0.08,-0.4285,-0.3535,0.0,-1.0,0.4773,0.4531,-0.4272,0.0,0.102,-0.724,-0.309,-0.3164,1.437,-0.678,0.1644,-0.4656,-0.4358,0.0,1.512,1.058,-0.2742,-0.4646,-0.4631,0.0,0.0,-0.4653,0.0,-0.4268,0.1642,0.0,0.0,0.0,0.0,-0.004326,1.0,1.0,0.0,-0.2388,0.788,0.0,1.0,0.0,0.0,0.0,0.0,0.0,-0.05383
